-0.028
-0.020
-0.020
-0.012
0.020
0.044
0.076
0.076
0.060
0.064
0.064
0.068
0.072
0.060
0.040
0.032
0.032
0.028
0.016
0.028
0.040
0.056
0.060
0.084
0.120
0.136
0.164
0.160
0.132
0.124
0.124
0.116
0.112
0.108
0.092
0.084
0.072
0.060
0.068
0.092
0.096
0.120
0.120
0.136
0.144
0.156
0.164
0.168
0.164
0.180
0.176
0.156
0.128
0.120
0.112
0.108
0.092
0.080
0.076
0.064
0.052
0.036
0.012
0.008
0.036
0.056
0.060
0.056
0.064
0.072
0.064
0.044
0.064
0.060
0.024
0.004
-0.020
-0.028
-0.048
-0.052
-0.052
-0.036
-0.048
-0.052
-0.036
-0.024
-0.024
-0.020
-0.020
-0.032
-0.036
-0.052
-0.044
-0.052
-0.064
-0.076
-0.100
-0.104
-0.100
-0.096
-0.100
-0.080
-0.080
-0.076
-0.068
-0.032
-0.024
-0.032
-0.040
-0.044
-0.048
-0.044
-0.040
-0.044
-0.060
-0.088
-0.116
-0.120
-0.136
-0.112
-0.100
-0.092
-0.116
-0.108
-0.092
-0.076
-0.060
-0.060
-0.060
-0.060
-0.064
-0.092
-0.108
-0.148
-0.188
-0.232
-0.252
-0.264
-0.272
-0.268
-0.260
-0.244
-0.224
-0.188
-0.160
-0.144
-0.116
-0.060
0.004
0.072
0.140
0.196
0.264
0.336
0.408
0.480
0.568
0.668
0.784
0.888
0.952
1.036
1.140
1.248
1.316
1.392
1.484
1.528
1.536
1.540
1.504
1.440
1.356
1.232
1.068
0.892
0.704
0.560
0.436
0.348
0.240
0.184
0.120
0.076
0.064
0.056
0.088
0.116
0.132
0.140
0.156
0.136
0.124
0.104
0.088
0.064
0.032
0.024
0.012
0.004
-0.012
-0.004
0.008
0.012
0.012
0.024
0.012
0.004
0.004
0.008
0.024
0.024
0.008
-0.020
-0.044
-0.060
-0.068
-0.100
-0.112
-0.124
-0.108
-0.096
-0.100
-0.088
-0.076
-0.056
-0.040
-0.032
-0.036
-0.028
-0.028
-0.032
-0.032
-0.060
-0.068
-0.076
-0.096
-0.104
-0.104
-0.124
-0.132
-0.104
-0.088
-0.072
-0.056
-0.040
-0.024
-0.024
-0.024
-0.024
-0.020
-0.040
-0.044
-0.048
-0.076
-0.096
-0.100
-0.096
-0.084
-0.080
-0.092
-0.060
-0.072
-0.068
-0.048
-0.044
-0.044
-0.036
-0.024
-0.008
-0.012
-0.040
-0.040
-0.056
-0.072
-0.088
-0.100
-0.092
-0.076
-0.072
-0.072
-0.048
-0.052
-0.056
-0.044
-0.040
-0.016
-0.004
-0.008
-0.012
0.008
0.012
0.024
0.004
-0.020
-0.032
-0.052
-0.052
-0.056
-0.056
-0.068
-0.068
-0.052
-0.024
-0.012
0.012
0.016
0.020
0.032
0.036
0.044
0.044
0.036
0.032
0.020
0.000
-0.012
-0.016
-0.008
-0.008
0.000
0.000
-0.004
0.012
0.028
0.048
0.064
0.068
0.064
0.072
0.076
0.076
0.076
0.076
0.076
0.072
0.060
0.044
0.040
0.032
0.028
0.032
0.048
0.064
0.092
0.136
0.164
0.172
0.172
0.152
0.132
0.128
0.128
0.120
0.128
0.104
0.096
0.084
0.096
0.108
0.128
0.124
0.128
0.140
0.156
0.176
0.200
0.200
0.208
0.236
0.232
0.176
0.192
0.188
0.188
0.184
0.172
0.164
0.144
0.148
0.168
0.184
0.192
0.200
0.216
0.240
0.256
0.268
0.272
0.280
0.264
0.248
0.248
0.228
0.216
0.204
0.208
0.200
0.188
0.180
0.160
0.180
0.188
0.204
0.204
0.204
0.204
0.208
0.216
0.216
0.216
0.188
0.160
0.128
0.100
0.072
0.056
0.036
0.020
0.012
0.012
0.008
0.016
0.024
0.040
0.040
0.056
0.076
0.072
0.064
0.076
0.056
0.028
0.008
-0.036
-0.080
-0.096
-0.080
-0.080
-0.096
-0.128
-0.112
-0.108
-0.096
-0.092
-0.092
-0.076
-0.084
-0.088
-0.092
-0.084
-0.072
-0.076
-0.092
-0.112
-0.128
-0.140
-0.164
-0.172
-0.176
-0.192
-0.188
-0.160
-0.136
-0.136
-0.128
-0.092
-0.096
-0.124
-0.128
-0.136
-0.136
-0.148
-0.172
-0.172
-0.184
-0.184
-0.184
-0.172
-0.196
-0.200
-0.200
-0.212
-0.192
-0.188
-0.160
-0.164
-0.164
-0.160
-0.160
-0.156
-0.156
-0.148
-0.156
-0.172
-0.188
-0.196
-0.196
-0.192
-0.212
-0.228
-0.220
-0.200
-0.188
-0.172
-0.148
-0.136
-0.128
-0.116
-0.124
-0.132
-0.144
-0.156
-0.172
-0.208
-0.232
-0.244
-0.244
-0.248
-0.236
-0.224
-0.200
-0.192
-0.164
-0.144
-0.136
-0.144
-0.140
-0.148
-0.172
-0.160
-0.144
-0.148
-0.180
-0.192
-0.212
-0.216
-0.240
-0.232
-0.224
-0.228
-0.224
-0.212
-0.188
-0.180
-0.172
-0.156
-0.160
-0.164
-0.172
-0.164
-0.160
-0.168
-0.184
-0.200
-0.200
-0.200
-0.200
-0.224
-0.236
-0.228
-0.220
-0.220
-0.192
-0.172
-0.148
-0.144
-0.136
-0.140
-0.148
-0.144
-0.148
-0.164
-0.180
-0.200
-0.220
-0.224
-0.212
-0.224
-0.228
-0.212
-0.204
-0.220
-0.208
-0.216
-0.180
-0.156
-0.156
-0.172
-0.172
-0.168
-0.160
-0.164
-0.180
-0.196
-0.228
-0.248
-0.244
-0.240
-0.264
-0.284
-0.272
-0.244
-0.220
-0.200
-0.184
-0.156
-0.148
-0.164
-0.180
-0.180
-0.184
-0.216
-0.220
-0.212
-0.240
-0.256
-0.252
-0.264
-0.264
-0.260
-0.244
-0.232
-0.216
-0.200
-0.200
-0.208
-0.196
-0.168
-0.160
-0.176
-0.180
-0.188
-0.204
-0.216
-0.256
-0.280
-0.284
-0.280
-0.276
-0.272
-0.276
-0.260
-0.248
-0.228
-0.208
-0.212
-0.188
-0.180
-0.172
-0.172
-0.188
-0.212
-0.236
-0.244
-0.264
-0.272
-0.268
-0.264
-0.268
-0.260
-0.256
-0.248
-0.248
-0.232
-0.208
-0.200
-0.192
-0.196
-0.196
-0.200
-0.200
-0.232
-0.248
-0.256
-0.268
-0.284
-0.300
-0.308
-0.292
-0.276
-0.288
-0.308
-0.296
-0.260
-0.212
-0.200
-0.192
-0.200
-0.204
-0.200
-0.196
-0.216
-0.236
-0.252
-0.272
-0.276
-0.288
-0.296
-0.284
-0.276
-0.276
-0.280
-0.268
-0.252
-0.248
-0.240
-0.224
-0.232
-0.232
-0.236
-0.236
-0.252
-0.260
-0.264
-0.292
-0.292
-0.292
-0.292
-0.288
-0.272
-0.268
-0.272
-0.268
-0.268
-0.252
-0.240
-0.236
-0.240
-0.244
-0.240
-0.256
-0.252
-0.248
-0.260
-0.264
-0.272
-0.292
-0.304
-0.308
-0.292
-0.252
-0.232
-0.232
-0.228
-0.204
-0.196
-0.212
-0.220
-0.216
-0.224
-0.224
-0.244
-0.268
-0.276
-0.300
-0.312
-0.312
-0.320
-0.328
-0.320
-0.316
-0.292
-0.260
-0.244
-0.244
-0.264
-0.256
-0.256
-0.252
-0.240
-0.252
-0.264
-0.268
-0.272
-0.288
-0.276
-0.292
-0.316
-0.332
-0.320
-0.320
-0.312
-0.284
-0.296
-0.280
-0.264
-0.240
-0.228
-0.220
-0.216
-0.236
-0.256
-0.280
-0.296
-0.308
-0.296
-0.300
-0.304
-0.308
-0.312
-0.308
-0.296
-0.260
-0.240
-0.240
-0.252
-0.244
-0.244
-0.228
-0.232
-0.236
-0.260
-0.272
-0.272
-0.292
-0.312
-0.332
-0.328
-0.336
-0.332
-0.312
-0.300
-0.276
-0.256
-0.248
-0.236
-0.228
-0.232
-0.232
-0.236
-0.256
-0.260
-0.288
-0.340
-0.372
-0.372
-0.344
-0.320
-0.304
-0.292
-0.288
-0.280
-0.260
-0.260
-0.232
-0.224
-0.216
-0.212
-0.204
-0.208
-0.208
-0.212
-0.228
-0.212
-0.224
-0.220
-0.220
-0.228
-0.252
-0.272
-0.280
-0.284
-0.244
-0.200
-0.176
-0.180
-0.180
-0.148
-0.128
-0.152
-0.160
-0.144
-0.156
-0.180
-0.220
-0.228
-0.220
-0.212
-0.204
-0.200
-0.188
-0.164
-0.156
-0.148
-0.136
-0.144
-0.152
-0.152
-0.140
-0.148
-0.164
-0.176
-0.184
-0.188
-0.208
-0.220
-0.228
-0.248
-0.256
-0.248
-0.244
-0.228
-0.220
-0.228
-0.208
-0.212
-0.196
-0.180
-0.184
-0.204
-0.216
-0.244
-0.256
-0.268
-0.292
-0.300
-0.296
-0.300
-0.292
-0.284
-0.288
-0.292
-0.296
-0.308
-0.300
-0.280
-0.268
-0.272
-0.272
-0.276
-0.272
-0.276
-0.296
-0.316
-0.324
-0.336
-0.336
-0.348
-0.332
-0.316
-0.312
-0.308
-0.296
-0.300
-0.288
-0.276
-0.280
-0.284
-0.276
-0.280
-0.288
-0.300
-0.320
-0.336
-0.364
-0.360
-0.360
-0.356
-0.344
-0.336
-0.336
-0.328
-0.316
-0.308
-0.304
-0.308
-0.316
-0.328
-0.340
-0.368
-0.396
-0.424
-0.452
-0.456
-0.476
-0.464
-0.436
-0.428
-0.416
-0.388
-0.360
-0.324
-0.260
-0.184
-0.088
-0.004
0.076
0.164
0.236
0.312
0.384
0.436
0.508
0.612
0.712
0.820
0.912
0.972
1.020
1.072
1.112
1.172
1.192
1.204
1.212
1.168
1.076
1.008
0.904
0.812
0.688
0.544
0.380
0.236
0.100
0.016
-0.052
-0.108
-0.164
-0.192
-0.216
-0.240
-0.244
-0.232
-0.228
-0.208
-0.188
-0.168
-0.156
-0.172
-0.192
-0.216
-0.220
-0.232
-0.260
-0.252
-0.220
-0.220
-0.224
-0.220
-0.228
-0.212
-0.204
-0.192
-0.188
-0.188
-0.192
-0.180
-0.188
-0.200
-0.208
-0.224
-0.240
-0.264
-0.280
-0.292
-0.300
-0.300
-0.296
-0.276
-0.268
-0.260
-0.248
-0.232
-0.224
-0.216
-0.216
-0.216
-0.208
-0.216
-0.224
-0.248
-0.256
-0.260
-0.264
-0.260
-0.284
-0.304
-0.300
-0.304
-0.288
-0.272
-0.256
-0.244
-0.232
-0.208
-0.192
-0.200
-0.208
-0.220
-0.212
-0.224
-0.244
-0.260
-0.284
-0.280
-0.288
-0.296
-0.304
-0.304
-0.288
-0.244
-0.228
-0.204
-0.180
-0.172
-0.180
-0.184
-0.160
-0.168
-0.192
-0.200
-0.216
-0.236
-0.232
-0.232
-0.264
-0.272
-0.264
-0.240
-0.232
-0.228
-0.228
-0.200
-0.180
-0.172
-0.168
-0.164
-0.172
-0.172
-0.164
-0.184
-0.196
-0.200
-0.192
-0.204
-0.216
-0.212
-0.208
-0.184
-0.184
-0.172
-0.164
-0.152
-0.144
-0.120
-0.124
-0.128
-0.112
-0.116
-0.124
-0.124
-0.132
-0.152
-0.172
-0.168
-0.180
-0.184
-0.164
-0.144
-0.144
-0.136
-0.108
-0.096
-0.092
-0.080
-0.064
-0.040
-0.040
-0.048
-0.056
-0.092
-0.112
-0.108
-0.092
-0.104
-0.108
-0.112
-0.116
-0.100
-0.084
-0.060
-0.048
-0.040
-0.024
-0.008
0.004
0.016
0.012
-0.012
-0.012
-0.020
-0.020
-0.032
-0.032
-0.032
-0.028
-0.040
-0.044
-0.028
-0.020
-0.004
0.004
0.016
0.044
0.084
0.100
0.092
0.064
0.036
0.044
0.024
0.000
-0.020
-0.032
-0.024
-0.004
0.016
0.024
0.044
0.056
0.076
0.088
0.128
0.140
0.144
0.148
0.148
0.148
0.136
0.120
0.108
0.100
0.080
0.068
0.064
0.064
0.044
0.036
0.048
0.060
0.072
0.056
0.056
0.072
0.080
0.096
0.088
0.080
0.068
0.064
0.044
0.028
0.000
-0.036
-0.088
-0.088
-0.088
-0.100
-0.104
-0.096
-0.076
-0.068
-0.072
-0.076
-0.072
-0.072
-0.076
-0.080
-0.100
-0.112
-0.136
-0.140
-0.168
-0.184
-0.196
-0.180
-0.188
-0.188
-0.180
-0.188
-0.176
-0.176
-0.180
-0.164
-0.160
-0.148
-0.148
-0.172
-0.180
-0.192
-0.212
-0.224
-0.256
-0.272
-0.284
-0.300
-0.308
-0.324
-0.304
-0.280
-0.252
-0.232
-0.220
-0.208
-0.200
-0.192
-0.176
-0.200
-0.208
-0.224
-0.252
-0.264
-0.280
-0.280
-0.292
-0.292
-0.292
-0.284
-0.280
-0.280
-0.264
-0.248
-0.224
-0.224
-0.216
-0.212
-0.212
-0.220
-0.224
-0.228
-0.248
-0.260
-0.280
-0.296
-0.296
-0.284
-0.272
-0.268
-0.276
-0.268
-0.252
-0.236
-0.224
-0.216
-0.200
-0.204
-0.220
-0.208
-0.216
-0.220
-0.268
-0.292
-0.320
-0.300
-0.316
-0.308
-0.300
-0.308
-0.308
-0.308
-0.272
-0.252
-0.240
-0.224
-0.208
-0.208
-0.204
-0.212
-0.212
-0.204
-0.232
-0.256
-0.284
-0.296
-0.300
-0.280
-0.284
-0.284
-0.288
-0.272
-0.248
-0.240
-0.232
-0.220
-0.220
-0.232
-0.232
-0.224
-0.212
-0.216
-0.244
-0.248
-0.268
-0.268
-0.272
-0.264
-0.256
-0.260
-0.256
-0.252
-0.224
-0.212
-0.212
-0.208
-0.196
-0.192
-0.188
-0.188
-0.200
-0.204
-0.232
-0.240
-0.256
-0.260
-0.264
-0.264
-0.256
-0.244
-0.248
-0.252
-0.248
-0.252
-0.228
-0.216
-0.192
-0.208
-0.196
-0.184
-0.196
-0.200
-0.192
-0.208
-0.236
-0.248
-0.264
-0.268
-0.268
-0.264
-0.268
-0.260
-0.244
-0.236
-0.224
-0.220
-0.208
-0.204
-0.200
-0.184
-0.180
-0.200
-0.212
-0.224
-0.232
-0.244
-0.256
-0.264
-0.264
-0.268
-0.268
-0.252
-0.252
-0.232
-0.200
-0.188
-0.184
-0.184
-0.196
-0.208
-0.216
-0.248
-0.236
-0.232
-0.260
-0.284
-0.268
-0.252
-0.248
-0.240
-0.236
-0.252
-0.264
-0.268
-0.260
-0.244
-0.224
-0.200
-0.188
-0.196
-0.216
-0.236
-0.256
-0.256
-0.264
-0.264
-0.284
-0.300
-0.292
-0.292
-0.288
-0.272
-0.268
-0.256
-0.228
-0.228
-0.236
-0.224
-0.216
-0.220
-0.232
-0.240
-0.240
-0.256
-0.288
-0.304
-0.300
-0.284
-0.284
-0.280
-0.276
-0.268
-0.260
-0.248
-0.236
-0.232
-0.224
-0.208
-0.212
-0.224
-0.236
-0.244
-0.252
-0.260
-0.276
-0.288
-0.312
-0.304
-0.308
-0.308
-0.296
-0.292
-0.284
-0.276
-0.252
-0.224
-0.212
-0.216
-0.216
-0.220
-0.232
-0.240
-0.248
-0.252
-0.276
-0.292
-0.296
-0.288
-0.284
-0.284
-0.288
-0.288
-0.260
-0.232
-0.220
-0.216
-0.224
-0.224
-0.216
-0.236
-0.228
-0.240
-0.268
-0.284
-0.308
-0.300
-0.300
-0.296
-0.288
-0.276
-0.276
-0.264
-0.248
-0.228
-0.224
-0.196
-0.172
-0.192
-0.200
-0.224
-0.232
-0.236
-0.256
-0.268
-0.292
-0.292
-0.320
-0.336
-0.316
-0.300
-0.300
-0.292
-0.284
-0.276
-0.252
-0.248
-0.244
-0.240
-0.216
-0.212
-0.224
-0.240
-0.244
-0.264
-0.288
-0.296
-0.312
-0.320
-0.300
-0.296
-0.292
-0.264
-0.252
-0.232
-0.188
-0.184
-0.192
-0.200
-0.208
-0.204
-0.196
-0.204
-0.212
-0.216
-0.220
-0.216
-0.232
-0.216
-0.200
-0.204
-0.204
-0.184
-0.156
-0.148
-0.132
-0.120
-0.100
-0.088
-0.096
-0.104
-0.120
-0.128
-0.136
-0.136
-0.136
-0.144
-0.144
-0.148
-0.160
-0.156
-0.144
-0.136
-0.124
-0.092
-0.072
-0.084
-0.092
-0.092
-0.100
-0.112
-0.132
-0.148
-0.148
-0.164
-0.196
-0.200
-0.208
-0.212
-0.200
-0.216
-0.252
-0.244
-0.220
-0.192
-0.172
-0.164
-0.168
-0.168
-0.156
-0.156
-0.168
-0.196
-0.224
-0.268
-0.300
-0.304
-0.308
-0.332
-0.332
-0.324
-0.324
-0.312
-0.284
-0.240
-0.204
-0.212
-0.208
-0.216
-0.220
-0.228
-0.232
-0.236
-0.260
-0.296
-0.316
-0.316
-0.320
-0.344
-0.344
-0.332
-0.324
-0.312
-0.288
-0.272
-0.240
-0.224
-0.224
-0.224
-0.216
-0.224
-0.240
-0.264
-0.284
-0.296
-0.316
-0.336
-0.340
-0.336
-0.332
-0.320
-0.312
-0.296
-0.288
-0.272
-0.264
-0.260
-0.284
-0.296
-0.304
-0.336
-0.356
-0.384
-0.416
-0.432
-0.456
-0.452
-0.444
-0.404
-0.376
-0.344
-0.324
-0.292
-0.244
-0.184
-0.108
-0.040
0.044
0.132
0.208
0.296
0.384
0.468
0.552
0.644
0.732
0.816
0.900
0.968
1.036
1.088
1.148
1.224
1.280
1.308
1.312
1.264
1.184
1.112
1.028
0.916
0.776
0.608
0.420
0.268
0.140
0.048
-0.036
-0.084
-0.104
-0.132
-0.156
-0.176
-0.164
-0.144
-0.116
-0.100
-0.076
-0.064
-0.064
-0.088
-0.096
-0.112
-0.132
-0.132
-0.156
-0.160
-0.160
-0.168
-0.184
-0.184
-0.192
-0.172
-0.172
-0.184
-0.172
-0.168
-0.172
-0.168
-0.160
-0.160
-0.180
-0.192
-0.212
-0.220
-0.236
-0.248
-0.248
-0.252
-0.256
-0.268
-0.288
-0.260
-0.216
-0.184
-0.148
-0.152
-0.144
-0.132
-0.136
-0.160
-0.172
-0.192
-0.204
-0.220
-0.252
-0.248
-0.244
-0.236
-0.236
-0.240
-0.240
-0.224
-0.208
-0.196
-0.172
-0.168
-0.184
-0.180
-0.172
-0.168
-0.176
-0.184
-0.204
-0.224
-0.240
-0.240
-0.232
-0.228
-0.216
-0.200
-0.200
-0.204
-0.176
-0.128
-0.096
-0.084
-0.092
-0.120
-0.144
-0.164
-0.192
-0.188
-0.196
-0.200
-0.196
-0.192
-0.184
-0.176
-0.184
-0.164
-0.160
-0.160
-0.152
-0.152
-0.120
-0.100
-0.096
-0.092
-0.100
-0.116
-0.104
-0.112
-0.132
-0.156
-0.172
-0.180
-0.172
-0.172
-0.168
-0.172
-0.152
-0.140
-0.128
-0.108
-0.080
-0.072
-0.080
-0.064
-0.048
-0.064
-0.064
-0.072
-0.096
-0.108
-0.116
-0.120
-0.132
-0.136
-0.140
-0.116
-0.092
-0.076
-0.044
-0.032
-0.020
-0.012
-0.016
-0.028
-0.020
-0.008
0.012
-0.008
-0.036
-0.040
-0.052
-0.056
-0.056
-0.060
-0.052
-0.052
-0.048
-0.020
0.000
0.016
0.024
0.052
0.076
0.076
0.088
0.072
0.072
0.068
0.060
0.028
0.024
0.024
0.024
0.020
0.032
0.044
0.048
0.056
0.084
0.120
0.144
0.152
0.140
0.160
0.164
0.168
0.168
0.136
0.100
0.084
0.060
0.060
0.064
0.080
0.100
0.108
0.120
0.132
0.148
0.164
0.168
0.160
0.164
0.172
0.184
0.176
0.168
0.132
0.124
0.124
0.104
0.088
0.088
0.092
0.092
0.104
0.116
0.136
0.128
0.120
0.120
0.116
0.100
0.092
0.080
0.068
0.060
0.048
0.012
-0.004
0.004
-0.016
-0.040
-0.064
-0.060
-0.044
-0.044
-0.040
-0.048
-0.044
-0.036
-0.036
-0.036
-0.028
-0.024
-0.040
-0.044
-0.072
-0.104
-0.112
-0.116
-0.128
-0.128
-0.140
-0.144
-0.148
-0.160
-0.160
-0.164
-0.156
-0.144
-0.140
-0.140
-0.128
-0.128
-0.136
-0.152
-0.164
-0.172
-0.200
-0.212
-0.212
-0.212
-0.216
-0.216
-0.208
-0.212
-0.204
-0.196
-0.188
-0.164
-0.152
-0.140
-0.156
-0.148
-0.156
-0.164
-0.172
-0.196
-0.216
-0.252
-0.284
-0.288
-0.288
-0.284
-0.272
-0.264
-0.228
-0.192
-0.180
-0.184
-0.168
-0.160
-0.152
-0.152
-0.180
-0.196
-0.188
-0.176
-0.196
-0.216
-0.228
-0.244
-0.252
-0.260
-0.252
-0.228
-0.208
-0.184
-0.164
-0.160
-0.168
-0.184
-0.192
-0.204
-0.200
-0.200
-0.212
-0.236
-0.252
-0.256
-0.248
-0.236
-0.224
-0.212
-0.188
-0.184
-0.180
-0.184
-0.172
-0.168
-0.160
-0.156
-0.160
-0.148
-0.148
-0.176
-0.212
-0.212
-0.220
-0.224
-0.240
-0.252
-0.240
-0.248
-0.232
-0.220
-0.216
-0.204
-0.184
-0.188
-0.164
-0.144
-0.140
-0.140
-0.136
-0.148
-0.184
-0.188
-0.204
-0.224
-0.208
-0.200
-0.212
-0.208
-0.216
-0.224
-0.204
-0.192
-0.168
-0.164
-0.152
-0.140
-0.148
-0.156
-0.168
-0.168
-0.176
-0.188
-0.204
-0.212
-0.220
-0.232
-0.232
-0.236
-0.240
-0.212
-0.176
-0.172
-0.160
-0.148
-0.140
-0.124
-0.128
-0.140
-0.136
-0.168
-0.184
-0.196
-0.232
-0.236
-0.232
-0.228
-0.228
-0.244
-0.220
-0.188
-0.168
-0.152
-0.136
-0.144
-0.132
-0.132
-0.132
-0.124
-0.140
-0.156
-0.184
-0.208
-0.236
-0.232
-0.232
-0.224
-0.224
-0.228
-0.228
-0.224
-0.200
-0.176
-0.160
-0.140
-0.140
-0.144
-0.156
-0.160
-0.156
-0.148
-0.148
-0.164
-0.196
-0.212
-0.212
-0.220
-0.252
-0.232
-0.224
-0.208
-0.208
-0.196
-0.176
-0.168
-0.184
-0.196
-0.188
-0.180
-0.180
-0.172
-0.180
-0.200
-0.212
-0.212
-0.216
-0.224
-0.232
-0.232
-0.208
-0.224
-0.204
-0.196
-0.188
-0.180
-0.160
-0.160
-0.160
-0.172
-0.180
-0.184
-0.180
-0.172
-0.196
-0.216
-0.248
-0.256
-0.256
-0.240
-0.228
-0.220
-0.224
-0.212
-0.188
-0.184
-0.176
-0.160
-0.168
-0.180
-0.196
-0.188
-0.216
-0.248
-0.252
-0.248
-0.256
-0.248
-0.236
-0.232
-0.232
-0.232
-0.224
-0.228
-0.204
-0.172
-0.160
-0.148
-0.132
-0.152
-0.164
-0.176
-0.200
-0.208
-0.212
-0.216
-0.236
-0.240
-0.248
-0.224
-0.212
-0.208
-0.204
-0.208
-0.180
-0.168
-0.164
-0.172
-0.176
-0.176
-0.192
-0.232
-0.256
-0.248
-0.256
-0.256
-0.280
-0.284
-0.256
-0.228
-0.212
-0.196
-0.196
-0.196
-0.188
-0.164
-0.152
-0.152
-0.160
-0.164
-0.160
-0.176
-0.188
-0.208
-0.228
-0.232
-0.240
-0.240
-0.236
-0.228
-0.232
-0.236
-0.228
-0.200
-0.176
-0.156
-0.156
-0.160
-0.164
-0.168
-0.176
-0.184
-0.196
-0.212
-0.224
-0.228
-0.244
-0.240
-0.248
-0.232
-0.212
-0.200
-0.200
-0.200
-0.184
-0.172
-0.148
-0.156
-0.156
-0.160
-0.164
-0.180
-0.208
-0.216
-0.220
-0.220
-0.212
-0.236
-0.248
-0.248
-0.248
-0.244
-0.232
-0.212
-0.188
-0.156
-0.132
-0.132
-0.156
-0.188
-0.196
-0.184
-0.192
-0.208
-0.232
-0.236
-0.224
-0.232
-0.240
-0.244
-0.208
-0.196
-0.208
-0.228
-0.228
-0.212
-0.196
-0.192
-0.180
-0.176
-0.164
-0.168
-0.168
-0.176
-0.192
-0.188
-0.200
-0.216
-0.212
-0.212
-0.232
-0.232
-0.216
-0.188
-0.136
-0.132
-0.128
-0.136
-0.144
-0.156
-0.152
-0.152
-0.164
-0.180
-0.196
-0.192
-0.180
-0.172
-0.176
-0.164
-0.148
-0.128
-0.108
-0.072
-0.052
-0.064
-0.072
-0.072
-0.076
-0.084
-0.088
-0.084
-0.092
-0.096
-0.096
-0.096
-0.104
-0.120
-0.140
-0.148
-0.136
-0.084
-0.048
-0.036
-0.028
-0.036
-0.040
-0.044
-0.032
-0.032
-0.032
-0.040
-0.056
-0.064
-0.064
-0.068
-0.088
-0.116
-0.128
-0.124
-0.128
-0.116
-0.100
-0.100
-0.084
-0.088
-0.084
-0.084
-0.084
-0.104
-0.108
-0.100
-0.140
-0.168
-0.192
-0.184
-0.176
-0.184
-0.192
-0.184
-0.180
-0.164
-0.172
-0.172
-0.148
-0.132
-0.128
-0.148
-0.160
-0.184
-0.184
-0.192
-0.212
-0.236
-0.248
-0.256
-0.276
-0.256
-0.260
-0.240
-0.216
-0.192
-0.180
-0.156
-0.152
-0.160
-0.168
-0.180
-0.204
-0.188
-0.184
-0.196
-0.220
-0.236
-0.256
-0.248
-0.236
-0.236
-0.232
-0.228
-0.228
-0.228
-0.224
-0.216
-0.196
-0.176
-0.160
-0.160
-0.164
-0.184
-0.208
-0.240
-0.256
-0.280
-0.316
-0.332
-0.356
-0.372
-0.380
-0.356
-0.360
-0.344
-0.316
-0.288
-0.252
-0.228
-0.200
-0.184
-0.156
-0.112
-0.060
0.000
0.060
0.128
0.176
0.244
0.308
0.408
0.524
0.648
0.744
0.840
0.944
1.056
1.144
1.208
1.268
1.328
1.376
1.396
1.412
1.404
1.316
1.224
1.120
1.008
0.880
0.716
0.540
0.412
0.308
0.204
0.128
0.084
0.052
-0.004
-0.020
-0.016
0.000
0.012
0.016
0.012
-0.004
-0.024
-0.044
-0.044
-0.048
-0.064
-0.080
-0.092
-0.076
-0.072
-0.068
-0.072
-0.076
-0.068
-0.056
-0.068
-0.072
-0.092
-0.072
-0.068
-0.112
-0.140
-0.160
-0.168
-0.168
-0.192
-0.208
-0.180
-0.160
-0.140
-0.136
-0.120
-0.100
-0.100
-0.116
-0.112
-0.112
-0.124
-0.128
-0.144
-0.164
-0.176
-0.168
-0.160
-0.156
-0.152
-0.172
-0.168
-0.168
-0.156
-0.148
-0.132
-0.112
-0.104
-0.096
-0.088
-0.092
-0.100
-0.108
-0.100
-0.112
-0.136
-0.156
-0.168
-0.164
-0.148
-0.152
-0.152
-0.144
-0.136
-0.124
-0.112
-0.112
-0.116
-0.100
-0.080
-0.076
-0.096
-0.100
-0.100
-0.104
-0.124
-0.128
-0.116
-0.108
-0.104
-0.116
-0.100
-0.084
-0.088
-0.088
-0.092
-0.084
-0.052
-0.048
-0.044
-0.048
-0.072
-0.072
-0.064
-0.068
-0.080
-0.084
-0.084
-0.084
-0.088
-0.092
-0.084
-0.072
-0.056
-0.040
-0.028
0.008
0.008
-0.004
-0.016
0.000
0.012
0.008
-0.016
-0.040
-0.040
-0.048
-0.064
-0.064
-0.076
-0.056
-0.040
-0.044
-0.016
0.016
0.036
0.036
0.044
0.060
0.064
0.072
0.048
0.048
0.036
0.044
0.048
0.048
0.052
0.036
0.036
0.028
0.020
0.040
0.068
0.080
0.084
0.104
0.116
0.128
0.128
0.128
0.124
0.140
0.136
0.124
0.112
0.100
0.104
0.104
0.120
0.136
0.152
0.156
0.164
0.196
0.220
0.216
0.204
0.216
0.224
0.224
0.228
0.244
0.244
0.216
0.204
0.200
0.192
0.188
0.200
0.220
0.220
0.224
0.236
0.256
0.272
0.276
0.284
0.312
0.320
0.336
0.320
0.320
0.308
0.300
0.264
0.240
0.236
0.244
0.228
0.232
0.248
0.260
0.276
0.276
0.304
0.320
0.344
0.348
0.348
0.328
0.304
0.288
0.260
0.232
0.208
0.188
0.184
0.184
0.164
0.152
0.140
0.144
0.156
0.160
0.172
0.196
0.180
0.172
0.164
0.164
0.148
0.144
0.120
0.084
0.044
0.032
0.024
0.016
0.012
0.012
0.024
0.020
0.016
0.024
0.032
0.060
0.072
0.056
0.048
0.020
0.016
0.016
-0.012
-0.020
-0.036
-0.048
-0.052
-0.068
-0.084
-0.092
-0.080
-0.080
-0.080
-0.056
-0.036
-0.028
-0.032
-0.016
-0.016
-0.024
-0.032
-0.036
-0.052
-0.068
-0.088
-0.100
-0.108
-0.120
-0.124
-0.128
-0.124
-0.132
-0.112
-0.116
-0.092
-0.060
-0.048
-0.044
-0.036
-0.036
-0.040
-0.040
-0.052
-0.060
-0.092
-0.108
-0.112
-0.104
-0.112
-0.132
-0.116
-0.116
-0.092
-0.072
-0.048
-0.056
-0.052
-0.044
-0.048
-0.048
-0.044
-0.032
-0.032
-0.056
-0.080
-0.096
-0.116
-0.120
-0.152
-0.156
-0.124
-0.096
-0.076
-0.068
-0.028
-0.008
-0.004
0.004
0.000
0.000
-0.024
-0.040
-0.044
-0.064
-0.092
-0.096
-0.124
-0.124
-0.104
-0.072
-0.068
-0.068
-0.052
-0.052
-0.040
-0.040
-0.040
-0.044
-0.036
-0.028
-0.040
-0.036
-0.056
-0.068
-0.080
-0.076
-0.080
-0.072
-0.068
-0.080
-0.080
-0.056
-0.048
-0.040
-0.040
-0.040
-0.032
-0.020
-0.012
-0.016
-0.024
-0.032
-0.048
-0.044
-0.060
-0.064
-0.064
-0.068
-0.076
-0.080
-0.092
-0.084
-0.068
-0.064
-0.044
-0.016
0.012
0.012
0.012
0.016
-0.016
-0.016
-0.028
-0.028
-0.044
-0.076
-0.072
-0.056
-0.060
-0.068
-0.056
-0.060
-0.056
-0.040
-0.024
-0.012
-0.012
-0.012
-0.016
0.004
0.012
-0.004
-0.028
-0.040
-0.060
-0.076
-0.080
-0.088
-0.080
-0.080
-0.056
-0.048
-0.040
-0.016
0.012
0.008
0.012
0.004
0.008
0.000
-0.012
-0.024
-0.052
-0.048
-0.056
-0.076
-0.076
-0.068
-0.076
-0.076
-0.072
-0.048
-0.032
-0.024
-0.004
0.008
0.020
0.044
0.052
0.032
0.008
-0.020
-0.052
-0.052
-0.064
-0.072
-0.084
-0.096
-0.100
-0.096
-0.080
-0.064
-0.048
-0.028
0.004
0.016
0.016
0.000
-0.004
-0.008
-0.016
-0.032
-0.048
-0.044
-0.068
-0.056
-0.040
-0.052
-0.068
-0.064
-0.064
-0.072
-0.056
-0.044
-0.040
-0.016
0.000
-0.012
-0.008
-0.004
-0.008
-0.016
-0.040
-0.052
-0.068
-0.072
-0.072
-0.080
-0.080
-0.076
-0.072
-0.088
-0.072
-0.060
-0.024
-0.008
0.008
0.012
0.000
-0.008
-0.020
-0.008
0.000
-0.028
-0.060
-0.076
-0.084
-0.080
-0.068
-0.060
-0.044
-0.044
-0.044
-0.036
-0.008
-0.012
0.004
0.008
0.008
0.004
0.004
-0.008
-0.032
-0.036
-0.044
-0.040
-0.052
-0.076
-0.080
-0.080
-0.080
-0.060
-0.040
-0.040
-0.004
0.016
0.012
0.008
0.012
0.008
-0.016
-0.024
-0.036
-0.052
-0.084
-0.072
-0.072
-0.088
-0.076
-0.060
-0.048
-0.040
-0.028
-0.012
0.000
-0.016
-0.032
-0.012
0.004
-0.004
-0.008
-0.012
-0.032
-0.060
-0.060
-0.056
-0.076
-0.068
-0.060
-0.052
-0.040
-0.036
-0.028
-0.012
0.008
0.008
0.016
0.032
0.024
-0.004
-0.016
-0.020
-0.020
-0.028
-0.040
-0.052
-0.056
-0.064
-0.060
-0.048
-0.048
-0.048
-0.040
-0.020
-0.008
-0.004
0.000
0.016
0.020
0.008
-0.004
-0.008
0.000
-0.020
-0.056
-0.056
-0.056
-0.064
-0.076
-0.080
-0.064
-0.064
-0.056
-0.032
0.008
0.036
0.032
0.028
0.044
0.048
0.036
0.020
-0.004
-0.032
-0.064
-0.072
-0.068
-0.060
-0.048
-0.044
-0.048
-0.044
-0.044
-0.032
0.004
0.012
0.012
0.000
0.000
-0.008
0.000
-0.008
-0.020
-0.020
-0.032
-0.056
-0.060
-0.052
-0.048
-0.044
-0.044
-0.036
-0.012
-0.004
0.020
0.016
0.004
-0.012
0.008
0.012
0.016
0.016
-0.012
-0.020
-0.036
-0.044
-0.056
-0.060
-0.064
-0.060
-0.044
-0.016
0.008
0.028
0.048
0.060
0.068
0.076
0.080
0.084
0.080
0.064
0.068
0.044
0.028
0.048
0.052
0.068
0.068
0.068
0.068
0.052
0.072
0.100
0.120
0.108
0.104
0.120
0.124
0.120
0.116
0.108
0.104
0.112
0.108
0.100
0.096
0.100
0.092
0.096
0.100
0.108
0.128
0.136
0.156
0.160
0.148
0.140
0.124
0.120
0.128
0.120
0.092
0.072
0.052
0.040
0.020
0.004
0.012
0.016
0.012
0.016
0.044
0.060
0.060
0.064
0.072
0.076
0.076
0.068
0.072
0.052
0.024
0.008
-0.012
-0.032
-0.032
-0.032
-0.048
-0.040
-0.028
-0.024
-0.016
0.004
0.020
0.032
0.036
0.028
0.008
0.016
0.024
-0.008
-0.032
-0.052
-0.068
-0.056
-0.044
-0.040
-0.052
-0.032
-0.036
-0.036
-0.012
0.000
0.020
0.028
0.036
0.040
0.040
0.032
0.024
0.024
0.004
-0.016
-0.040
-0.048
-0.044
-0.056
-0.076
-0.072
-0.072
-0.076
-0.064
-0.060
-0.064
-0.084
-0.092
-0.104
-0.116
-0.136
-0.136
-0.136
-0.140
-0.116
-0.096
-0.072
-0.088
-0.096
-0.088
-0.032
0.036
0.128
0.216
0.316
0.412
0.504
0.592
0.684
0.788
0.880
0.992
1.068
1.140
1.216
1.272
1.320
1.364
1.408
1.472
1.512
1.520
1.528
1.480
1.416
1.376
1.284
1.168
1.008
0.832
0.696
0.580
0.452
0.328
0.252
0.172
0.124
0.108
0.096
0.104
0.116
0.124
0.132
0.132
0.144
0.156
0.180
0.192
0.196
0.164
0.156
0.160
0.128
0.108
0.104
0.100
0.088
0.060
0.056
0.040
0.036
0.028
0.040
0.056
0.072
0.084
0.080
0.084
0.080
0.084
0.076
0.072
0.052
0.024
0.000
-0.036
-0.024
-0.008
0.008
0.008
0.012
0.012
0.032
0.060
0.060
0.068
0.076
0.092
0.100
0.100
0.076
0.052
0.052
0.048
0.024
0.008
0.000
0.004
-0.008
-0.004
0.020
0.016
0.020
0.036
0.052
0.072
0.092
0.104
0.120
0.124
0.108
0.104
0.076
0.040
0.028
0.028
0.040
0.048
0.044
0.032
0.032
0.036
0.052
0.064
0.072
0.088
0.100
0.096
0.104
0.104
0.100
0.100
0.092
0.072
0.048
0.044
0.044
0.040
0.036
0.048
0.068
0.076
0.084
0.112
0.144
0.156
0.172
0.176
0.176
0.168
0.136
0.112
0.092
0.092
0.068
0.060
0.080
0.080
0.076
0.068
0.076
0.080
0.100
0.124
0.136
0.148
0.148
0.168
0.192
0.184
0.180
0.184
0.176
0.152
0.156
0.152
0.132
0.124
0.124
0.120
0.144
0.144
0.144
0.160
0.184
0.200
0.232
0.244
0.256
0.272
0.264
0.256
0.256
0.236
0.212
0.192
0.200
0.192
0.184
0.204
0.232
0.228
0.240
0.256
0.300
0.312
0.332
0.352
0.356
0.356
0.332
0.324
0.308
0.308
0.304
0.312
0.308
0.312
0.316
0.324
0.332
0.348
0.368
0.384
0.408
0.420
0.416
0.408
0.420
0.424
0.420
0.420
0.408
0.384
0.364
0.352
0.356
0.380
0.376
0.380
0.376
0.388
0.420
0.444
0.460
0.460
0.456
0.460
0.456
0.456
0.440
0.436
0.432
0.432
0.408
0.388
0.384
0.388
0.380
0.376
0.380
0.380
0.400
0.400
0.408
0.424
0.404
0.384
0.360
0.348
0.332
0.336
0.320
0.308
0.292
0.276
0.264
0.260
0.236
0.228
0.216
0.200
0.208
0.216
0.228
0.240
0.240
0.232
0.228
0.216
0.200
0.188
0.172
0.152
0.136
0.124
0.112
0.092
0.080
0.072
0.084
0.096
0.100
0.092
0.100
0.108
0.116
0.100
0.100
0.108
0.092
0.088
0.072
0.056
0.048
0.036
0.032
0.012
0.000
-0.008
-0.004
0.004
0.008
0.028
0.052
0.080
0.100
0.104
0.084
0.076
0.080
0.056
0.024
0.024
0.004
0.000
-0.016
-0.032
-0.032
-0.036
-0.024
-0.008
0.004
0.012
0.036
0.048
0.060
0.068
0.068
0.060
0.048
0.044
0.036
0.024
0.004
0.000
-0.008
-0.004
-0.008
-0.016
-0.008
0.004
0.020
0.016
0.020
0.032
0.056
0.048
0.052
0.052
0.052
0.040
0.036
0.008
-0.008
-0.024
-0.020
-0.028
-0.036
-0.024
-0.016
-0.004
0.028
0.048
0.056
0.056
0.060
0.068
0.064
0.060
0.040
0.036
0.028
0.016
-0.004
-0.016
-0.020
-0.024
-0.024
-0.016
-0.012
-0.004
0.008
0.020
0.044
0.064
0.072
0.064
0.068
0.060
0.052
0.052
0.040
0.036
0.016
0.016
0.020
0.004
0.000
-0.016
0.000
0.004
0.016
0.020
0.044
0.052
0.064
0.080
0.072
0.056
0.036
0.052
0.048
0.032
0.000
-0.016
-0.016
-0.012
-0.012
-0.016
0.000
0.008
0.016
0.020
0.056
0.072
0.060
0.060
0.056
0.068
0.064
0.048
0.040
0.032
0.016
0.016
0.000
-0.008
-0.008
-0.016
-0.012
-0.004
0.008
0.020
0.044
0.060
0.072
0.064
0.060
0.068
0.064
0.052
0.036
0.028
0.008
-0.004
-0.016
-0.008
-0.008
0.004
0.000
-0.004
-0.004
0.016
0.048
0.052
0.068
0.060
0.064
0.056
0.048
0.036
0.016
-0.012
-0.028
-0.012
-0.004
-0.008
-0.016
-0.020
-0.012
-0.024
0.000
0.040
0.044
0.044
0.060
0.072
0.084
0.072
0.060
0.040
0.008
-0.028
-0.044
-0.036
-0.032
-0.004
-0.004
0.004
0.016
0.012
0.000
-0.004
0.020
0.040
0.068
0.068
0.056
0.048
0.040
0.024
0.016
0.004
-0.024
-0.024
-0.032
-0.028
-0.016
-0.032
-0.040
-0.008
0.032
0.044
0.072
0.092
0.084
0.080
0.068
0.068
0.064
0.060
0.028
-0.012
-0.024
-0.036
-0.036
-0.048
-0.044
-0.036
-0.024
0.000
0.012
0.012
0.020
0.036
0.052
0.064
0.080
0.072
0.068
0.068
0.052
0.048
0.016
0.004
0.000
-0.004
-0.008
0.000
0.008
0.024
0.032
0.024
0.016
0.024
0.060
0.048
0.048
0.032
0.040
0.048
0.036
0.020
-0.012
-0.020
0.000
-0.004
-0.016
-0.012
-0.012
0.000
0.028
0.052
0.076
0.096
0.096
0.104
0.096
0.072
0.072
0.060
0.036
0.012
-0.004
0.004
-0.004
-0.008
0.000
0.016
0.024
0.036
0.044
0.056
0.072
0.084
0.100
0.108
0.108
0.084
0.060
0.052
0.048
0.040
0.024
0.024
0.016
0.016
0.024
0.040
0.012
0.012
0.056
0.080
0.096
0.100
0.100
0.104
0.112
0.100
0.096
0.088
0.068
0.044
0.032
0.048
0.040
0.024
0.024
0.032
0.048
0.056
0.064
0.088
0.120
0.128
0.120
0.136
0.132
0.112
0.104
0.088
0.072
0.088
0.052
0.044
0.044
0.040
0.040
0.052
0.040
0.044
0.052
0.060
0.080
0.104
0.124
0.136
0.128
0.104
0.092
0.092
0.100
0.088
0.048
0.028
0.032
0.072
0.088
0.100
0.088
0.088
0.120
0.132
0.144
0.148
0.164
0.164
0.148
0.136
0.120
0.108
0.096
0.092
0.092
0.084
0.096
0.092
0.116
0.120
0.120
0.124
0.128
0.148
0.172
0.176
0.172
0.176
0.204
0.196
0.164
0.164
0.160
0.160
0.164
0.156
0.156
0.152
0.160
0.172
0.184
0.200
0.208
0.212
0.228
0.240
0.260
0.268
0.264
0.248
0.252
0.244
0.248
0.252
0.220
0.220
0.224
0.220
0.244
0.268
0.288
0.300
0.308
0.324
0.340
0.336
0.344
0.340
0.344
0.316
0.320
0.308
0.292
0.272
0.248
0.240
0.224
0.224
0.252
0.272
0.272
0.284
0.280
0.280
0.292
0.300
0.308
0.304
0.296
0.284
0.284
0.276
0.264
0.228
0.196
0.200
0.204
0.192
0.184
0.168
0.176
0.188
0.184
0.204
0.240
0.264
0.264
0.260
0.256
0.268
0.272
0.256
0.224
0.208
0.216
0.216
0.204
0.180
0.188
0.196
0.204
0.216
0.236
0.264
0.288
0.280
0.272
0.276
0.280
0.260
0.268
0.264
0.256
0.232
0.204
0.208
0.220
0.192
0.196
0.232
0.236
0.244
0.272
0.292
0.312
0.324
0.316
0.312
0.308
0.296
0.284
0.236
0.196
0.156
0.136
0.116
0.100
0.100
0.092
0.112
0.128
0.176
0.224
0.276
0.348
0.376
0.416
0.460
0.504
0.548
0.628
0.716
0.788
0.848
0.916
1.016
1.124
1.224
1.296
1.392
1.492
1.584
1.656
1.712
1.780
1.828
1.860
1.868
1.848
1.784
1.700
1.620
1.508
1.404
1.304
1.172
1.016
0.900
0.776
0.660
0.596
0.568
0.544
0.548
0.544
0.512
0.472
0.428
0.436
0.428
0.440
0.440
0.436
0.440
0.420
0.420
0.428
0.444
0.456
0.472
0.460
0.468
0.484
0.508
0.532
0.540
0.516
0.520
0.536
0.528
0.516
0.508
0.488
0.472
0.460
0.440
0.436
0.428
0.444
0.460
0.476
0.500
0.508
0.516
0.520
0.528
0.516
0.524
0.528
0.544
0.560
0.544
0.520
0.492
0.472
0.476
0.464
0.472
0.476
0.504
0.512
0.520
0.524
0.540
0.576
0.580
0.584
0.600
0.600
0.584
0.560
0.552
0.540
0.532
0.528
0.524
0.504
0.504
0.524
0.540
0.564
0.576
0.592
0.604
0.608
0.600
0.616
0.628
0.640
0.624
0.616
0.604
0.604
0.592
0.576
0.576
0.580
0.580
0.580
0.584
0.580
0.604
0.624
0.644
0.664
0.652
0.680
0.716
0.712
0.696
0.700
0.676
0.668
0.656
0.660
0.660
0.660
0.664
0.676
0.672
0.660
0.688
0.700
0.740
0.764
0.768
0.776
0.756
0.752
0.752
0.768
0.772
0.776
0.756
0.712
0.704
0.724
0.728
0.740
0.760
0.776
0.784
0.800
0.824
0.848
0.836
0.840
0.868
0.860
0.848
0.848
0.844
0.840
0.816
0.812
0.820
0.816
0.832
0.844
0.860
0.860
0.876
0.892
0.932
0.972
0.972
0.968
0.976
0.980
0.972
0.952
0.952
0.948
0.960
0.948
0.952
0.960
0.984
0.996
1.000
1.004
1.024
1.040
1.064
1.080
1.084
1.084
1.092
1.088
1.084
1.096
1.096
1.092
1.072
1.068
1.068
1.076
1.092
1.100
1.108
1.112
1.136
1.152
1.168
1.176
1.184
1.204
1.216
1.216
1.200
1.216
1.220
1.184
1.164
1.152
1.164
1.168
1.168
1.168
1.176
1.184
1.196
1.196
1.196
1.224
1.236
1.232
1.236
1.244
1.228
1.220
1.184
1.160
1.144
1.132
1.112
1.104
1.092
1.116
1.128
1.128
1.128
1.120
1.120
1.108
1.080
1.084
1.104
1.100
1.088
1.064
1.056
1.036
1.016
0.992
0.976
0.984
0.976
0.972
0.984
0.988
0.996
1.028
1.064
1.056
1.044
1.028
1.008
1.008
1.008
1.004
0.988
0.988
0.956
0.928
0.920
0.912
0.920
0.920
0.936
0.928
0.944
0.956
0.976
0.992
1.004
1.008
0.996
0.988
0.972
0.968
0.952
0.944
0.940
0.936
0.936
0.928
0.940
0.928
0.940
0.944
0.964
0.984
0.996
1.004
1.004
1.000
1.000
1.004
0.992
1.016
0.996
0.964
0.944
0.920
0.932
0.948
0.956
0.956
0.960
0.972
0.996
1.008
1.028
1.024
1.016
1.012
1.016
1.024
1.036
1.040
1.008
0.988
1.004
1.028
1.020
1.020
1.008
0.992
0.992
0.992
1.024
1.008
1.028
1.052
1.072
1.060
1.068
1.068
1.060
1.052
1.048
1.036
1.012
1.012
1.008
1.020
1.020
1.044
1.056
1.052
1.064
1.080
1.100
1.112
1.108
1.096
1.080
1.096
1.112
1.120
1.088
1.060
1.060
1.048
1.048
1.048
1.060
1.064
1.076
1.076
1.092
1.116
1.136
1.132
1.140
1.144
1.156
1.156
1.144
1.148
1.140
1.136
1.112
1.096
1.100
1.096
1.088
1.080
1.100
1.120
1.136
1.148
1.176
1.164
1.176
1.192
1.180
1.200
1.200
1.200
1.172
1.148
1.108
1.100
1.124
1.124
1.124
1.124
1.132
1.144
1.160
1.176
1.204
1.216
1.228
1.236
1.232
1.232
1.224
1.216
1.224
1.200
1.172
1.168
1.172
1.192
1.176
1.176
1.188
1.200
1.200
1.184
1.212
1.216
1.236
1.252
1.252
1.264
1.276
1.260
1.244
1.208
1.200
1.204
1.204
1.176
1.180
1.184
1.196
1.212
1.216
1.228
1.244
1.256
1.244
1.248
1.276
1.268
1.256
1.248
1.224
1.216
1.196
1.196
1.196
1.200
1.204
1.200
1.192
1.212
1.216
1.240
1.260
1.272
1.280
1.296
1.304
1.284
1.280
1.276
1.252
1.244
1.224
1.220
1.224
1.220
1.216
1.220
1.220
1.236
1.248
1.264
1.296
1.292
1.300
1.312
1.312
1.304
1.312
1.300
1.272
1.292
1.272
1.232
1.216
1.224
1.232
1.256
1.256
1.256
1.272
1.296
1.312
1.328
1.332
1.308
1.300
1.304
1.308
1.308
1.312
1.288
1.272
1.260
1.244
1.252
1.256
1.252
1.256
1.272
1.280
1.296
1.336
1.332
1.340
1.336
1.348
1.348
1.316
1.316
1.296
1.284
1.256
1.252
1.244
1.248
1.240
1.248
1.268
1.284
1.288
1.292
1.304
1.320
1.344
1.368
1.368
1.352
1.344
1.336
1.324
1.312
1.308
1.300
1.292
1.292
1.288
1.284
1.288
1.304
1.316
1.328
1.352
1.352
1.360
1.364
1.372
1.368
1.356
1.344
1.324
1.316
1.296
1.284
1.300
1.316
1.320
1.312
1.300
1.308
1.324
1.344
1.368
1.380
1.380
1.384
1.400
1.396
1.404
1.404
1.400
1.400
1.384
1.408
1.408
1.412
1.404
1.368
1.360
1.372
1.404
1.432
1.456
1.476
1.484
1.476
1.500
1.504
1.496
1.488
1.468
1.464
1.448
1.444
1.444
1.460
1.468
1.464
1.452
1.476
1.500
1.516
1.516
1.524
1.524
1.532
1.540
1.520
1.508
1.492
1.468
1.452
1.424
1.420
1.404
1.396
1.400
1.400
1.392
1.392
1.404
1.416
1.448
1.448
1.444
1.456
1.452
1.440
1.432
1.436
1.416
1.404
1.360
1.344
1.340
1.328
1.328
1.340
1.328
1.332
1.336
1.364
1.388
1.388
1.384
1.384
1.388
1.380
1.368
1.352
1.344
1.336
1.312
1.308
1.300
1.296
1.292
1.292
1.288
1.292
1.336
1.344
1.348
1.356
1.364
1.400
1.412
1.408
1.396
1.376
1.360
1.336
1.320
1.312
1.300
1.288
1.288
1.304
1.312
1.336
1.356
1.352
1.368
1.368
1.364
1.344
1.332
1.308
1.284
1.264
1.228
1.192
1.164
1.168
1.204
1.212
1.212
1.220
1.244
1.296
1.360
1.420
1.492
1.568
1.644
1.740
1.812
1.848
1.904
1.972
2.056
2.148
2.240
2.340
2.420
2.504
2.600
2.680
2.728
2.764
2.832
2.876
2.924
2.912
2.856
2.764
2.672
2.568
2.480
2.376
2.236
2.060
1.904
1.780
1.676
1.600
1.544
1.524
1.500
1.480
1.456
1.428
1.424
1.432
1.456
1.492
1.500
1.488
1.488
1.472
1.440
1.440
1.432
1.444
1.448
1.440
1.424
1.432
1.432
1.448
1.444
1.456
1.476
1.480
1.468
1.444
1.444
1.444
1.452
1.448
1.416
1.384
1.372
1.372
1.376
1.364
1.368
1.376
1.380
1.392
1.412
1.424
1.428
1.436
1.424
1.416
1.412
1.400
1.412
1.424
1.428
1.404
1.376
1.372
1.372
1.360
1.360
1.392
1.404
1.408
1.408
1.416
1.428
1.424
1.428
1.432
1.448
1.436
1.424
1.420
1.404
1.380
1.372
1.372
1.376
1.372
1.352
1.344
1.356
1.376
1.396
1.412
1.432
1.456
1.464
1.464
1.452
1.448
1.444
1.432
1.416
1.376
1.356
1.376
1.384
1.388
1.388
1.400
1.412
1.424
1.428
1.448
1.476
1.484
1.484
1.492
1.480
1.480
1.484
1.476
1.468
1.452
1.432
1.428
1.436
1.428
1.420
1.432
1.440
1.460
1.480
1.488
1.500
1.516
1.512
1.508
1.508
1.512
1.512
1.496
1.492
1.476
1.456
1.456
1.460
1.444
1.452
1.472
1.480
1.488
1.500
1.520
1.536
1.560
1.588
1.588
1.556
1.536
1.532
1.536
1.540
1.536
1.532
1.512
1.500
1.512
1.512
1.516
1.532
1.572
1.592
1.608
1.620
1.612
1.620
1.632
1.628
1.636
1.636
1.624
1.612
1.604
1.592
1.608
1.604
1.600
1.600
1.612
1.624
1.632
1.652
1.684
1.704
1.724
1.712
1.712
1.712
1.688
1.676
1.676
1.664
1.644
1.640
1.640
1.632
1.636
1.636
1.644
1.668
1.704
1.720
1.744
1.760
1.748
1.756
1.760
1.756
1.776
1.792
1.760
1.736
1.696
1.672
1.648
1.636
1.636
1.628
1.640
1.660
1.684
1.696
1.708
1.712
1.712
1.708
1.684
1.664
1.648
1.636
1.620
1.588
1.548
1.560
1.556
1.548
1.516
1.500
1.520
1.512
1.520
1.540
1.552
1.556
1.540
1.524
1.520
1.520
1.508
1.492
1.480
1.468
1.448
1.420
1.412
1.408
1.372
1.380
1.376
1.372
1.376
1.380
1.400
1.400
1.400
1.408
1.408
1.404
1.384
1.380
1.364
1.336
1.320
1.316
1.296
1.296
1.292
1.304
1.316
1.328
1.332
1.320
1.332
1.336
1.336
1.344
1.348
1.360
1.356
1.352
1.344
1.324
1.308
1.284
1.268
1.260
1.248
1.248
1.256
1.260
1.260
1.280
1.296
1.304
1.316
1.324
1.336
1.336
1.336
1.320
1.284
1.284
1.264
1.256
1.256
1.260
1.260
1.248
1.232
1.228
1.244
1.304
1.328
1.288
1.268
1.296
1.320
1.328
1.308
1.288
1.256
1.248
1.224
1.244
1.252
1.252
1.248
1.256
1.256
1.252
1.264
1.276
1.308
1.316
1.312
1.308
1.304
1.296
1.296
1.296
1.284
1.272
1.252
1.248
1.236
1.232
1.236
1.236
1.236
1.236
1.252
1.260
1.268
1.272
1.272
1.276
1.300
1.300
1.312
1.320
1.304
1.264
1.224
1.220
1.220
1.204
1.184
1.200
1.196
1.212
1.224
1.228
1.244
1.244
1.256
1.268
1.276
1.292
1.288
1.284
1.272
1.268
1.240
1.216
1.188
1.204
1.196
1.184
1.216
1.232
1.248
1.256
1.280
1.292
1.308
1.304
1.296
1.272
1.272
1.264
1.248
1.236
1.232
1.224
1.204
1.200
1.180
1.172
1.172
1.192
1.216
1.232
1.248
1.264
1.284
1.288
1.288
1.280
1.272
1.272
1.252
1.232
1.196
1.184
1.172
1.168
1.164
1.176
1.184
1.200
1.224
1.236
1.256
1.256
1.232
1.224
1.236
1.232
1.236
1.236
1.220
1.188
1.160
1.152
1.152
1.148
1.148
1.156
1.176
1.172
1.180
1.200
1.220
1.232
1.244
1.248
1.240
1.236
1.224
1.204
1.204
1.188
1.168
1.136
1.116
1.104
1.112
1.112
1.112
1.132
1.156
1.172
1.184
1.172
1.184
1.204
1.212
1.192
1.172
1.164
1.156
1.152
1.132
1.120
1.136
1.132
1.140
1.120
1.116
1.128
1.140
1.164
1.192
1.208
1.216
1.204
1.192
1.192
1.172
1.164
1.148
1.136
1.096
1.096
1.104
1.100
1.100
1.104
1.104
1.112
1.140
1.152
1.160
1.180
1.188
1.172
1.156
1.156
1.140
1.112
1.104
1.100
1.088
1.088
1.092
1.096
1.084
1.064
1.064
1.080
1.092
1.092
1.116
1.140
1.148
1.132
1.132
1.128
1.136
1.136
1.120
1.084
1.072
1.056
1.072
1.080
1.068
1.064
1.068
1.076
1.096
1.104
1.108
1.112
1.112
1.124
1.112
1.100
1.104
1.104
1.096
1.092
1.084
1.072
1.072
1.052
1.044
1.036
1.032
1.044
1.052
1.076
1.104
1.108
1.108
1.112
1.116
1.104
1.104
1.104
1.092
1.072
1.044
1.044
1.036
1.032
1.028
1.008
1.016
1.032
1.060
1.088
1.132
1.148
1.136
1.144
1.152
1.140
1.136
1.124
1.120
1.112
1.100
1.100
1.096
1.112
1.104
1.104
1.112
1.108
1.124
1.144
1.164
1.180
1.184
1.180
1.200
1.188
1.184
1.184
1.156
1.152
1.144
1.156
1.152
1.168
1.140
1.128
1.124
1.120
1.120
1.124
1.152
1.156
1.144
1.152
1.144
1.136
1.132
1.132
1.120
1.088
1.072
1.068
1.072
1.056
1.056
1.060
1.076
1.084
1.088
1.088
1.096
1.092
1.108
1.108
1.092
1.056
1.056
1.044
1.024
1.000
0.980
0.968
0.956
0.940
0.944
0.944
0.936
0.944
0.948
0.976
0.992
1.016
1.008
1.008
1.004
1.008
1.000
0.980
0.960
0.948
0.936
0.920
0.912
0.908
0.920
0.944
0.944
0.952
0.960
0.960
0.968
0.968
0.976
0.988
1.004
0.980
0.976
0.956
0.940
0.920
0.896
0.896
0.908
0.908
0.888
0.896
0.896
0.868
0.868
0.888
0.896
0.880
0.864
0.852
0.828
0.804
0.804
0.796
0.784
0.780
0.772
0.768
0.772
0.792
0.820
0.848
0.868
0.904
0.960
1.028
1.112
1.192
1.264
1.352
1.436
1.508
1.608
1.704
1.804
1.908
1.988
2.064
2.156
2.232
2.276
2.320
2.396
2.452
2.480
2.488
2.484
2.424
2.332
2.236
2.124
2.012
1.836
1.640
1.488
1.360
1.236
1.132
1.076
1.032
0.980
0.960
0.940
0.948
0.976
1.000
1.016
1.020
1.020
1.028
1.036
1.036
1.036
1.024
1.024
1.004
0.988
0.964
0.948
0.932
0.924
0.940
0.932
0.924
0.920
0.928
0.944
0.968
0.972
0.964
0.940
0.932
0.940
0.924
0.892
0.876
0.876
0.864
0.852
0.844
0.856
0.848
0.844
0.844
0.856
0.868
0.888
0.876
0.880
0.900
0.904
0.892
0.888
0.880
0.864
0.852
0.836
0.824
0.832
0.840
0.816
0.836
0.832
0.840
0.864
0.876
0.888
0.896
0.888
0.888
0.904
0.892
0.876
0.872
0.864
0.868
0.852
0.848
0.840
0.856
0.852
0.856
0.852
0.852
0.864
0.876
0.888
0.888
0.896
0.916
0.928
0.912
0.892
0.876
0.868
0.844
0.816
0.828
0.828
0.832
0.824
0.844
0.852
0.864
0.876
0.888
0.912
0.920
0.920
0.924
0.920
0.888
0.888
0.892
0.880
0.876
0.860
0.844
0.836
0.828
0.836
0.848
0.844
0.872
0.900
0.916
0.936
0.924
0.924
0.936
0.940
0.924
0.920
0.896
0.888
0.876
0.880
0.876
0.856
0.848
0.852
0.848
0.848
0.872
0.912
0.948
0.968
0.988
1.000
0.988
0.992
0.988
0.984
0.960
0.932
0.916
0.908
0.912
0.912
0.908
0.908
0.920
0.940
0.956
0.980
0.996
1.024
1.024
1.028
1.016
1.020
1.012
1.000
0.992
0.996
0.980
0.964
0.976
0.988
0.988
1.000
1.016
1.024
1.036
1.056
1.088
1.108
1.108
1.108
1.108
1.120
1.112
1.092
1.084
1.076
1.072
1.052
1.032
1.028
1.040
1.044
1.052
1.048
1.080
1.100
1.112
1.132
1.144
1.144
1.136
1.124
1.120
1.104
1.076
1.072
1.056
1.044
1.032
1.032
1.032
1.040
1.048
1.048
1.056
1.064
1.080
1.084
1.084
1.080
1.064
1.072
1.060
1.048
1.004
0.984
0.952
0.928
0.892
0.880
0.876
0.868
0.884
0.876
0.876
0.880
0.888
0.892
0.896
0.888
0.888
0.888
0.884
0.872
0.848
0.816
0.776
0.756
0.740
0.744
0.748
0.748
0.740
0.736
0.728
0.740
0.752
0.768
0.776
0.764
0.768
0.756
0.720
0.716
0.716
0.708
0.684
0.664
0.636
0.612
0.620
0.628
0.644
0.648
0.656
0.660
0.676
0.692
0.696
0.684
0.684
0.700
0.696
0.668
0.656
0.640
0.612
0.604
0.592
0.588
0.588
0.588
0.596
0.596
0.604
0.620
0.644
0.664
0.684
0.684
0.684
0.664
0.660
0.652
0.628
0.604
0.584
0.564
0.552
0.548
0.564
0.580
0.588
0.588
0.584
0.600
0.620
0.640
0.640
0.616
0.624
0.644
0.640
0.648
0.628
0.612
0.588
0.576
0.560
0.556
0.556
0.544
0.544
0.552
0.568
0.568
0.580
0.596
0.624
0.616
0.616
0.612
0.616
0.616
0.588
0.588
0.564
0.556
0.548
0.548
0.540
0.544
0.556
0.556
0.568
0.584
0.612
0.624
0.620
0.612
0.616
0.592
0.588
0.608
0.600
0.584
0.572
0.548
0.532
0.516
0.524
0.528
0.520
0.516
0.520
0.528
0.564
0.596
0.604
0.600
0.604
0.612
0.620
0.596
0.584
0.564
0.536
0.536
0.528
0.508
0.500
0.492
0.508
0.516
0.544
0.544
0.552
0.560
0.572
0.568
0.580
0.572
0.564
0.548
0.544
0.532
0.520
0.496
0.496
0.492
0.484
0.472
0.484
0.500
0.512
0.532
0.548
0.544
0.540
0.548
0.548
0.544
0.540
0.524
0.516
0.508
0.492
0.468
0.440
0.428
0.436
0.460
0.460
0.464
0.480
0.492
0.516
0.536
0.528
0.524
0.516
0.516
0.504
0.496
0.480
0.456
0.440
0.436
0.444
0.444
0.432
0.440
0.448
0.464
0.476
0.472
0.496
0.500
0.528
0.528
0.524
0.500
0.480
0.468
0.448
0.420
0.400
0.400
0.400
0.408
0.416
0.424
0.420
0.424
0.456
0.484
0.492
0.480
0.484
0.476
0.472
0.460
0.460
0.440
0.428
0.424
0.408
0.396
0.380
0.388
0.388
0.388
0.388
0.400
0.412
0.408
0.424
0.480
0.492
0.492
0.468
0.468
0.432
0.428
0.428
0.404
0.384
0.356
0.348
0.356
0.364
0.380
0.388
0.384
0.400
0.408
0.436
0.440
0.448
0.428
0.420
0.408
0.424
0.420
0.432
0.416
0.368
0.320
0.328
0.328
0.336
0.360
0.356
0.380
0.404
0.412
0.416
0.428
0.424
0.428
0.432
0.428
0.420
0.412
0.408
0.396
0.372
0.356
0.348
0.340
0.344
0.348
0.356
0.352
0.364
0.372
0.392
0.396
0.400
0.400
0.404
0.384
0.376
0.372
0.348
0.324
0.308
0.308
0.296
0.288
0.288
0.312
0.336
0.356
0.368
0.368
0.392
0.392
0.392
0.376
0.384
0.372
0.380
0.368
0.340
0.332
0.328
0.332
0.340
0.336
0.340
0.356
0.360
0.372
0.396
0.420
0.448
0.460
0.456
0.452
0.452
0.456
0.444
0.432
0.420
0.400
0.384
0.392
0.408
0.396
0.380
0.380
0.400
0.432
0.456
0.472
0.508
0.512
0.524
0.520
0.516
0.508
0.504
0.480
0.460
0.440
0.416
0.412
0.396
0.384
0.372
0.380
0.392
0.408
0.416
0.428
0.432
0.428
0.408
0.400
0.404
0.392
0.388
0.376
0.356
0.348
0.332
0.320
0.308
0.296
0.292
0.288
0.288
0.300
0.304
0.312
0.320
0.316
0.316
0.312
0.300
0.304
0.308
0.292
0.272
0.264
0.236
0.220
0.212
0.200
0.204
0.200
0.192
0.212
0.224
0.252
0.288
0.296
0.292
0.284
0.284
0.272
0.256
0.236
0.228
0.228
0.216
0.212
0.200
0.192
0.196
0.200
0.188
0.208
0.240
0.252
0.284
0.296
0.296
0.268
0.272
0.272
0.264
0.236
0.216
0.188
0.164
0.156
0.144
0.112
0.080
0.064
0.060
0.048
0.032
0.040
0.068
0.096
0.128
0.144
0.152
0.180
0.192
0.204
0.240
0.292
0.344
0.412
0.496
0.552
0.620
0.700
0.804
0.924
1.044
1.184
1.288
1.376
1.472
1.560
1.628
1.664
1.744
1.800
1.816
1.804
1.756
1.692
1.608
1.500
1.380
1.276
1.128
0.964
0.848
0.748
0.656
0.552
0.468
0.424
0.392
0.364
0.352
0.344
0.328
0.332
0.308
0.308
0.300
0.296
0.312
0.332
0.320
0.324
0.328
0.344
0.360
0.352
0.344
0.324
0.316
0.316
0.308
0.284
0.276
0.256
0.236
0.224
0.200
0.188
0.180
0.188
0.192
0.196
0.204
0.228
0.248
0.244
0.252
0.260
0.256
0.244
0.228
0.236
0.228
0.204
0.176
0.172
0.160
0.164
0.160
0.160
0.136
0.144
0.180
0.196
0.204
0.232
0.232
0.228
0.220
0.216
0.236
0.216
0.196
0.176
0.152
0.164
0.172
0.164
0.172
0.188
0.192
0.200
0.192
0.204
0.224
0.228
0.224
0.224
0.232
0.228
0.232
0.220
0.200
0.180
0.164
0.152
0.140
0.152
0.176
0.184
0.180
0.200
0.200
0.196
0.224
0.240
0.260
0.260
0.264
0.244
0.240
0.240
0.232
0.216
0.192
0.180
0.172
0.164
0.172
0.196
0.200
0.204
0.224
0.236
0.240
0.248
0.248
0.256
0.244
0.252
0.268
0.268
0.260
0.224
0.192
0.180
0.188
0.192
0.196
0.200
0.216
0.244
0.248
0.264
0.284
0.292
0.300
0.304
0.312
0.300
0.284
0.252
0.236
0.228
0.220
0.228
0.224
0.240
0.256
0.296
0.284
0.284
0.304
0.308
0.328
0.324
0.320
0.332
0.332
0.332
0.344
0.340
0.324
0.304
0.296
0.300
0.292
0.288
0.288
0.308
0.340
0.368
0.376
0.380
0.408
0.424
0.428
0.440
0.448
0.424
0.428
0.416
0.400
0.396
0.376
0.388
0.384
0.376
0.384
0.392
0.404
0.420
0.440
0.452
0.476
0.476
0.492
0.504
0.500
0.484
0.480
0.484
0.472
0.440
0.424
0.436
0.424
0.412
0.408
0.424
0.420
0.432
0.448
0.456
0.480
0.488
0.496
0.496
0.496
0.480
0.468
0.452
0.428
0.404
0.384
0.368
0.348
0.328
0.336
0.340
0.332
0.320
0.324
0.336
0.344
0.348
0.348
0.352
0.332
0.312
0.312
0.292
0.264
0.244
0.220
0.208
0.196
0.180
0.184
0.196
0.196
0.192
0.192
0.192
0.208
0.200
0.200
0.192
0.184
0.156
0.152
0.144
0.120
0.084
0.064
0.068
0.068
0.076
0.068
0.064
0.068
0.068
0.072
0.088
0.104
0.104
0.104
0.104
0.104
0.092
0.088
0.072
0.048
0.028
0.012
0.000
0.008
0.000
-0.008
-0.004
0.008
0.028
0.052
0.076
0.104
0.100
0.104
0.080
0.048
0.020
-0.008
-0.024
-0.020
-0.036
-0.036
-0.032
-0.024
-0.032
-0.032
-0.024
-0.028
-0.008
0.000
0.012
0.036
0.040
0.044
0.036
0.032
0.036
0.032
0.012
-0.024
-0.036
-0.040
-0.048
-0.052
-0.052
-0.060
-0.052
-0.052
-0.044
-0.036
0.004
0.032
0.036
0.044
0.028
0.024
0.032
0.016
0.000
-0.016
-0.028
-0.028
-0.044
-0.032
-0.028
-0.044
-0.040
-0.036
-0.024
-0.012
0.012
-0.004
0.000
0.004
0.020
0.012
-0.008
-0.004
0.000
-0.012
-0.032
-0.048
-0.060
-0.056
-0.052
-0.036
-0.044
-0.060
-0.056
-0.044
-0.024
-0.004
0.024
0.040
0.044
0.044
0.032
0.008
-0.012
-0.028
-0.052
-0.060
-0.052
-0.044
-0.052
-0.064
-0.060
-0.052
-0.032
-0.036
-0.036
-0.008
-0.004
-0.012
-0.016
-0.008
-0.012
-0.012
-0.016
-0.048
-0.080
-0.084
-0.088
-0.084
-0.084
-0.080
-0.088
-0.088
-0.068
-0.060
-0.028
-0.012
-0.016
-0.024
-0.020
-0.008
-0.016
-0.020
-0.044
-0.056
-0.072
-0.076
-0.076
-0.072
-0.088
-0.092
-0.096
-0.088
-0.064
-0.060
-0.052
-0.040
-0.020
-0.008
-0.008
0.000
-0.004
-0.016
-0.040
-0.072
-0.092
-0.104
-0.096
-0.084
-0.088
-0.088
-0.104
-0.112
-0.100
-0.088
-0.080
-0.060
-0.040
-0.048
-0.040
-0.032
-0.040
-0.044
-0.064
-0.068
-0.092
-0.104
-0.128
-0.116
-0.108
-0.104
-0.088
-0.084
-0.084
-0.104
-0.088
-0.064
-0.060
-0.076
-0.068
-0.056
-0.064
-0.084
-0.104
-0.112
-0.136
-0.144
-0.132
-0.128
-0.120
-0.116
-0.116
-0.108
-0.088
-0.088
-0.080
-0.080
-0.068
-0.072
-0.076
-0.072
-0.068
-0.080
-0.096
-0.104
-0.120
-0.116
-0.128
-0.140
-0.152
-0.148
-0.144
-0.148
-0.128
-0.112
-0.088
-0.080
-0.076
-0.080
-0.088
-0.084
-0.088
-0.104
-0.120
-0.136
-0.160
-0.156
-0.164
-0.172
-0.172
-0.156
-0.156
-0.132
-0.116
-0.112
-0.088
-0.068
-0.068
-0.068
-0.064
-0.056
-0.064
-0.076
-0.092
-0.112
-0.144
-0.176
-0.176
-0.136
-0.144
-0.160
-0.148
-0.132
-0.140
-0.152
-0.128
-0.108
-0.092
-0.092
-0.092
-0.104
-0.128
-0.128
-0.132
-0.128
-0.128
-0.144
-0.152
-0.168
-0.168
-0.168
-0.172
-0.172
-0.152
-0.140
-0.128
-0.124
-0.100
-0.104
-0.104
-0.112
-0.120
-0.128
-0.132
-0.156
-0.168
-0.160
-0.164
-0.160
-0.172
-0.180
-0.172
-0.152
-0.140
-0.120
-0.096
-0.088
-0.064
-0.040
-0.032
-0.032
-0.044
-0.052
-0.068
-0.068
-0.088
-0.096
-0.112
-0.120
-0.116
-0.108
-0.108
-0.104
-0.092
-0.068
-0.020
-0.024
-0.024
0.004
0.012
0.012
0.024
0.016
-0.008
-0.012
-0.028
-0.028
-0.044
-0.056
-0.072
-0.076
-0.068
-0.060
-0.048
-0.052
-0.032
-0.016
-0.008
-0.008
-0.032
-0.040
-0.032
-0.040
-0.080
-0.104
-0.140
-0.172
-0.168
-0.140
-0.112
-0.120
-0.148
-0.164
-0.148
-0.132
-0.104
-0.104
-0.104
-0.096
-0.104
-0.132
-0.128
-0.132
-0.144
-0.168
-0.196
-0.208
-0.212
-0.220
-0.252
-0.256
-0.236
-0.232
-0.228
-0.216
-0.188
-0.176
-0.164
-0.172
-0.164
-0.172
-0.184
-0.196
-0.220
-0.244
-0.260
-0.268
-0.268
-0.256
-0.256
-0.252
-0.256
-0.236
-0.240
-0.236
-0.216
-0.196
-0.160
-0.152
-0.152
-0.164
-0.164
-0.160
-0.164
-0.192
-0.248
-0.260
-0.256
-0.264
-0.284
-0.288
-0.284
-0.260
-0.232
-0.236
-0.228
-0.240
-0.272
-0.312
-0.336
-0.348
-0.356
-0.368
-0.376
-0.380
-0.368
-0.344
-0.324
-0.292
-0.280
-0.256
-0.204
-0.152
-0.072
0.020
0.124
0.232
0.320
0.408
0.488
0.584
0.700
0.796
0.860
0.932
0.980
1.044
1.088
1.152
1.220
1.260
1.296
1.296
1.268
1.200
1.136
1.052
0.980
0.848
0.664
0.480
0.352
0.244
0.132
0.024
-0.048
-0.092
-0.108
-0.132
-0.168
-0.168
-0.160
-0.136
-0.108
-0.096
-0.060
-0.048
-0.032
-0.028
-0.020
-0.036
-0.044
-0.064
-0.084
-0.124
-0.148
-0.172
-0.192
-0.196
-0.212
-0.220
-0.220
-0.196
-0.164
-0.164
-0.156
-0.152
-0.136
-0.128
-0.136
-0.140
-0.144
-0.156
-0.164
-0.184
-0.200
-0.208
-0.216
-0.216
-0.244
-0.244
-0.232
-0.216
-0.204
-0.192
-0.160
-0.144
-0.136
-0.140
-0.140
-0.152
-0.172
-0.212
-0.220
-0.228
-0.244
-0.252
-0.244
-0.216
-0.232
-0.232
-0.220
-0.212
-0.200
-0.188
-0.168
-0.168
-0.168
-0.152
-0.144
-0.160
-0.168
-0.184
-0.192
-0.196
-0.208
-0.200
-0.196
-0.196
-0.208
-0.208
-0.224
-0.224
-0.232
-0.212
-0.184
-0.180
-0.168
-0.144
-0.128
-0.140
-0.156
-0.152
-0.160
-0.172
-0.176
-0.180
-0.184
-0.188
-0.188
-0.200
-0.220
-0.208
-0.180
-0.156
-0.116
-0.104
-0.104
-0.096
-0.096
-0.108
-0.124
-0.128
-0.140
-0.152
-0.176
-0.180
-0.180
-0.184
-0.172
-0.164
-0.172
-0.164
-0.156
-0.120
-0.096
-0.096
-0.092
-0.100
-0.088
-0.072
-0.072
-0.100
-0.112
-0.120
-0.124
-0.112
-0.108
-0.092
-0.088
-0.088
-0.092
-0.084
-0.076
-0.052
-0.040
-0.048
-0.032
-0.020
-0.024
-0.020
-0.028
-0.024
-0.024
-0.048
-0.080
-0.096
-0.088
-0.072
-0.060
-0.040
-0.040
-0.028
-0.012
0.028
0.056
0.052
0.052
0.056
0.076
0.072
0.080
0.080
0.056
0.032
0.004
-0.004
0.012
0.020
0.028
0.040
0.036
0.052
0.080
0.084
0.108
0.132
0.148
0.132
0.140
0.132
0.136
0.128
0.112
0.100
0.084
0.080
0.088
0.084
0.088
0.100
0.124
0.140
0.128
0.140
0.140
0.172
0.180
0.180
0.192
0.184
0.180
0.160
0.140
0.116
0.100
0.092
0.108
0.108
0.104
0.108
0.112
0.116
0.100
0.100
0.128
0.136
0.132
0.128
0.092
0.068
0.064
0.036
0.020
-0.004
-0.024
-0.032
-0.020
-0.024
-0.044
-0.040
-0.040
-0.028
-0.040
-0.028
-0.008
-0.020
-0.028
-0.032
-0.036
-0.056
-0.072
-0.088
-0.112
-0.136
-0.152
-0.156
-0.156
-0.168
-0.168
-0.160
-0.156
-0.140
-0.132
-0.116
-0.092
-0.096
-0.104
-0.116
-0.128
-0.144
-0.156
-0.164
-0.168
-0.180
-0.204
-0.220
-0.232
-0.256
-0.252
-0.236
-0.228
-0.228
-0.232
-0.224
-0.204
-0.180
-0.176
-0.176
-0.172
-0.192
-0.188
-0.200
-0.208
-0.228
-0.236
-0.236
-0.252
-0.248
-0.244
-0.244
-0.252
-0.244
-0.224
-0.208
-0.192
-0.176
-0.172
-0.172
-0.176
-0.184
-0.184
-0.208
-0.208
-0.216
-0.224
-0.220
-0.240
-0.260
-0.268
-0.252
-0.244
-0.232
-0.200
-0.180
-0.168
-0.160
-0.144
-0.136
-0.136
-0.180
-0.184
-0.192
-0.204
-0.228
-0.236
-0.248
-0.248
-0.244
-0.240
-0.220
-0.212
-0.180
-0.168
-0.168
-0.160
-0.164
-0.148
-0.120
-0.120
-0.152
-0.172
-0.192
-0.208
-0.204
-0.188
-0.196
-0.204
-0.216
-0.216
-0.204
-0.204
-0.200
-0.188
-0.172
-0.132
-0.108
-0.132
-0.136
-0.132
-0.140
-0.136
-0.144
-0.152
-0.176
-0.188
-0.208
-0.220
-0.228
-0.224
-0.220
-0.216
-0.180
-0.156
-0.128
-0.120
-0.120
-0.104
-0.104
-0.108
-0.120
-0.128
-0.136
-0.152
-0.164
-0.164
-0.176
-0.176
-0.184
-0.192
-0.188
-0.180
-0.152
-0.140
-0.112
-0.092
-0.084
-0.080
-0.084
-0.092
-0.096
-0.092
-0.112
-0.132
-0.164
-0.164
-0.168
-0.172
-0.168
-0.164
-0.148
-0.140
-0.136
-0.120
-0.124
-0.140
-0.140
-0.112
-0.088
-0.084
-0.092
-0.084
-0.112
-0.132
-0.160
-0.160
-0.152
-0.168
-0.180
-0.172
-0.160
-0.144
-0.116
-0.092
-0.064
-0.064
-0.072
-0.088
-0.068
-0.056
-0.068
-0.080
-0.096
-0.092
-0.108
-0.116
-0.120
-0.124
-0.124
-0.136
-0.132
-0.120
-0.112
-0.092
-0.080
-0.076
-0.064
-0.072
-0.072
-0.064
-0.076
-0.072
-0.088
-0.080
-0.080
-0.108
-0.120
-0.124
-0.104
-0.076
-0.092
-0.108
-0.076
-0.064
-0.036
-0.028
-0.024
-0.036
-0.048
-0.048
-0.076
-0.080
-0.068
-0.096
-0.112
-0.124
-0.116
-0.100
-0.112
-0.104
-0.104
-0.092
-0.068
-0.056
-0.028
-0.012
0.008
0.020
-0.008
-0.012
-0.008
-0.012
-0.028
-0.040
-0.044
-0.052
-0.080
-0.092
-0.072
-0.068
-0.060
-0.060
-0.048
-0.024
0.004
0.008
0.016
0.012
0.008
0.016
0.016
0.008
0.008
-0.004
-0.016
-0.004
0.000
-0.012
-0.008
0.012
0.036
0.052
0.068
0.100
0.136
0.148
0.140
0.148
0.152
0.148
0.132
0.132
0.136
0.148
0.116
0.108
0.104
0.084
0.080
0.100
0.124
0.144
0.176
0.184
0.200
0.228
0.244
0.236
0.236
0.232
0.216
0.208
0.192
0.172
0.148
0.152
0.144
0.124
0.116
0.116
0.124
0.132
0.148
0.172
0.196
0.208
0.200
0.212
0.204
0.204
0.204
0.204
0.176
0.160
0.120
0.104
0.108
0.100
0.096
0.096
0.100
0.092
0.096
0.092
0.100
0.120
0.140
0.156
0.164
0.168
0.152
0.144
0.128
0.116
0.088
0.076
0.072
0.088
0.056
0.052
0.060
0.088
0.100
0.120
0.152
0.144
0.136
0.148
0.164
0.168
0.156
0.152
0.136
0.136
0.128
0.116
0.100
0.100
0.092
0.104
0.128
0.140
0.152
0.164
0.180
0.196
0.208
0.200
0.200
0.200
0.220
0.196
0.172
0.160
0.148
0.132
0.104
0.096
0.076
0.056
0.060
0.056
0.052
0.060
0.084
0.096
0.124
0.152
0.160
0.180
0.208
0.256
0.276
0.312
0.340
0.416
0.500
0.572
0.652
0.740
0.820
0.916
1.040
1.184
1.292
1.356
1.432
1.504
1.572
1.640
1.668
1.700
1.696
1.692
1.660
1.620
1.524
1.436
1.368
1.292
1.228
1.116
1.012
0.924
0.824
0.692
0.616
0.584
0.552
0.524
0.500
0.452
0.384
0.340
0.308
0.312
0.324
0.340
0.348
0.356
0.372
0.392
0.412
0.436
0.468
0.468
0.472
0.476
0.472
0.468
0.472
0.448
0.416
0.372
0.336
0.344
0.352
0.360
0.368
0.376
0.384
0.404
0.432
0.464
0.488
0.508
0.504
0.492
0.484
0.476
0.468
0.448
0.416
0.416
0.420
0.436
0.448
0.448
0.436
0.420
0.420
0.436
0.444
0.448
0.476
0.496
0.524
0.552
0.568
0.544
0.520
0.520
0.520
0.508
0.480
0.472
0.460
0.468
0.472
0.480
0.492
0.504
0.516
0.536
0.560
0.572
0.572
0.596
0.604
0.584
0.572
0.552
0.552
0.544
0.528
0.552
0.544
0.548
0.552
0.552
0.552
0.556
0.572
0.604
0.636
0.656
0.656
0.640
0.648
0.632
0.632
0.624
0.624
0.628
0.604
0.608
0.592
0.600
0.604
0.624
0.644
0.648
0.660
0.648
0.676
0.680
0.688
0.716
0.716
0.716
0.724
0.728
0.720
0.700
0.676
0.684
0.704
0.692
0.696
0.712
0.732
0.740
0.780
0.788
0.816
0.812
0.820
0.812
0.812
0.788
0.788
0.780
0.788
0.792
0.776
0.764
0.760
0.756
0.752
0.784
0.824
0.860
0.864
0.876
0.900
0.916
0.928
0.944
0.940
0.932
0.928
0.928
0.916
0.904
0.880
0.884
0.904
0.912
0.904
0.904
0.920
0.932
0.948
0.972
1.004
1.028
1.036
1.052
1.064
1.060
1.060
1.056
1.040
1.044
1.032
1.016
1.012
1.016
1.004
1.000
1.016
1.048
1.080
1.108
1.132
1.128
1.136
1.152
1.160
1.152
1.168
1.168
1.152
1.148
1.136
1.128
1.108
1.108
1.100
1.092
1.112
1.140
1.168
1.172
1.188
1.200
1.192
1.172
1.160
1.152
1.152
1.136
1.132
1.124
1.120
1.128
1.140
1.140
1.136
1.136
1.116
1.100
1.120
1.140
1.164
1.152
1.148
1.136
1.124
1.120
1.108
1.100
1.056
1.016
1.004
1.008
1.008
1.000
1.004
1.008
1.008
1.008
1.020
1.036
1.048
1.044
1.044
1.032
1.032
1.020
0.996
0.972
0.976
0.960
0.936
0.944
0.948
0.948
0.960
0.972
0.968
0.948
0.960
0.988
1.012
1.028
1.036
1.036
1.028
1.008
1.000
0.996
0.988
0.984
0.972
0.948
0.940
0.948
0.952
0.960
0.964
0.960
0.976
0.992
1.028
1.044
1.060
1.056
1.060
1.040
1.024
1.020
1.012
0.996
0.984
0.988
0.984
0.984
0.972
0.988
0.996
1.004
1.008
1.016
1.040
1.056
1.044
1.056
1.068
1.068
1.048
1.016
1.020
1.020
1.024
1.004
1.008
1.012
1.008
1.028
1.044
1.072
1.088
1.088
1.108
1.132
1.132
1.140
1.144
1.128
1.132
1.108
1.076
1.064
1.076
1.056
1.056
1.080
1.104
1.112
1.096
1.100
1.108
1.136
1.156
1.172
1.188
1.192
1.204
1.192
1.196
1.188
1.168
1.152
1.120
1.100
1.096
1.100
1.084
1.104
1.108
1.136
1.156
1.180
1.180
1.196
1.204
1.212
1.208
1.200
1.200
1.208
1.208
1.192
1.168
1.168
1.156
1.144
1.148
1.136
1.140
1.184
1.200
1.220
1.228
1.248
1.264
1.264
1.248
1.264
1.260
1.220
1.184
1.164
1.152
1.144
1.144
1.160
1.152
1.160
1.160
1.168
1.164
1.172
1.180
1.184
1.208
1.204
1.216
1.216
1.220
1.192
1.196
1.192
1.180
1.188
1.192
1.156
1.144
1.160
1.200
1.212
1.216
1.232
1.240
1.236
1.256
1.256
1.248
1.228
1.228
1.204
1.192
1.192
1.176
1.144
1.152
1.156
1.172
1.192
1.176
1.152
1.168
1.200
1.208
1.220
1.220
1.228
1.220
1.196
1.212
1.212
1.220
1.200
1.176
1.164
1.180
1.184
1.204
1.224
1.232
1.240
1.228
1.244
1.252
1.260
1.264
1.260
1.252
1.260
1.236
1.208
1.228
1.204
1.184
1.180
1.168
1.172
1.172
1.192
1.204
1.220
1.224
1.224
1.244
1.244
1.240
1.244
1.248
1.220
1.224
1.248
1.256
1.260
1.232
1.232
1.224
1.216
1.224
1.224
1.240
1.256
1.276
1.292
1.300
1.308
1.320
1.344
1.352
1.368
1.368
1.360
1.364
1.340
1.312
1.304
1.308
1.316
1.320
1.360
1.360
1.368
1.392
1.412
1.424
1.432
1.412
1.412
1.412
1.420
1.432
1.420
1.400
1.392
1.400
1.396
1.400
1.392
1.376
1.368
1.388
1.412
1.432
1.460
1.456
1.456
1.456
1.452
1.428
1.412
1.416
1.412
1.400
1.388
1.384
1.360
1.348
1.336
1.316
1.324
1.336
1.356
1.372
1.396
1.388
1.372
1.364
1.360
1.368
1.360
1.352
1.336
1.324
1.296
1.300
1.268
1.264
1.268
1.276
1.284
1.272
1.288
1.276
1.300
1.308
1.316
1.308
1.312
1.332
1.332
1.324
1.284
1.260
1.276
1.280
1.260
1.264
1.284
1.284
1.292
1.308
1.320
1.336
1.348
1.360
1.368
1.368
1.364
1.360
1.364
1.352
1.328
1.316
1.304
1.308
1.292
1.296
1.288
1.284
1.276
1.280
1.304
1.296
1.296
1.308
1.296
1.288
1.268
1.232
1.208
1.196
1.180
1.176
1.180
1.184
1.208
1.208
1.212
1.244
1.280
1.316
1.364
1.448
1.552
1.656
1.740
1.804
1.860
1.932
2.008
2.088
2.176
2.256
2.320
2.388
2.452
2.524
2.564
2.624
2.680
2.716
2.716
2.728
2.712
2.652
2.568
2.492
2.428
2.360
2.232
2.104
1.948
1.812
1.680
1.588
1.540
1.504
1.468
1.424
1.392
1.380
1.372
1.380
1.412
1.440
1.460
1.480
1.480
1.472
1.464
1.464
1.448
1.452
1.432
1.424
1.416
1.408
1.400
1.384
1.380
1.384
1.404
1.412
1.432
1.444
1.460
1.448
1.428
1.436
1.432
1.424
1.404
1.384
1.368
1.368
1.356
1.348
1.332
1.324
1.328
1.320
1.340
1.368
1.404
1.408
1.420
1.424
1.420
1.428
1.416
1.412
1.380
1.364
1.352
1.348
1.356
1.352
1.332
1.340
1.352
1.368
1.392
1.388
1.400
1.416
1.452
1.452
1.440
1.432
1.424
1.408
1.388
1.400
1.364
1.356
1.356
1.364
1.360
1.360
1.368
1.356
1.368
1.368
1.396
1.408
1.420
1.428
1.432
1.432
1.420
1.412
1.396
1.392
1.376
1.360
1.372
1.384
1.372
1.364
1.372
1.380
1.400
1.420
1.448
1.448
1.448
1.440
1.452
1.440
1.444
1.444
1.428
1.412
1.388
1.384
1.380
1.380
1.400
1.416
1.412
1.400
1.420
1.440
1.440
1.440
1.456
1.460
1.468
1.452
1.452
1.452
1.452
1.456
1.432
1.440
1.448
1.448
1.428
1.420
1.432
1.448
1.468
1.480
1.528
1.528
1.516
1.508
1.516
1.508
1.504
1.496
1.500
1.500
1.496
1.484
1.464
1.448
1.456
1.468
1.488
1.524
1.564
1.564
1.572
1.576
1.564
1.572
1.588
1.580
1.592
1.580
1.560
1.548
1.536
1.536
1.536
1.536
1.544
1.544
1.544
1.548
1.572
1.580
1.596
1.608
1.620
1.640
1.656
1.636
1.604
1.588
1.588
1.584
1.568
1.564
1.552
1.540
1.548
1.560
1.568
1.584
1.600
1.612
1.644
1.648
1.652
1.648
1.652
1.656
1.648
1.628
1.604
1.588
1.572
1.568
1.556
1.560
1.548
1.556
1.572
1.556
1.544
1.548
1.580
1.592
1.592
1.588
1.572
1.556
1.532
1.528
1.500
1.460
1.432
1.436
1.428
1.420
1.432
1.444
1.436
1.448
1.432
1.404
1.420
1.432
1.404
1.388
1.408
1.400
1.408
1.392
1.368
1.344
1.316
1.324
1.308
1.296
1.276
1.276
1.284
1.284
1.300
1.292
1.304
1.316
1.324
1.324
1.320
1.296
1.288
1.272
1.244
1.228
1.212
1.208
1.204
1.200
1.204
1.220
1.212
1.236
1.264
1.252
1.260
1.268
1.280
1.276
1.276
1.268
1.260
1.244
1.232
1.212
1.192
1.176
1.176
1.164
1.172
1.188
1.188
1.204
1.220
1.232
1.248
1.232
1.216
1.232
1.244
1.232
1.228
1.204
1.184
1.184
1.172
1.164
1.140
1.136
1.132
1.148
1.164
1.180
1.196
1.208
1.220
1.220
1.220
1.224
1.220
1.216
1.192
1.180
1.168
1.168
1.160
1.144
1.152
1.148
1.152
1.172
1.172
1.180
1.196
1.204
1.216
1.240
1.232
1.220
1.216
1.200
1.200
1.180
1.164
1.148
1.136
1.136
1.152
1.132
1.108
1.136
1.148
1.144
1.144
1.164
1.184
1.192
1.204
1.200
1.196
1.192
1.184
1.152
1.148
1.132
1.112
1.096
1.092
1.096
1.096
1.116
1.108
1.120
1.144
1.168
1.176
1.176
1.168
1.184
1.188
1.176
1.176
1.156
1.148
1.124
1.108
1.104
1.084
1.084
1.084
1.092
1.116
1.124
1.116
1.124
1.132
1.136
1.148
1.152
1.152
1.148
1.156
1.144
1.128
1.112
1.080
1.084
1.076
1.068
1.076
1.084
1.088
1.100
1.112
1.108
1.124
1.136
1.148
1.156
1.168
1.132
1.104
1.084
1.068
1.056
1.036
1.020
1.020
1.016
1.016
1.028
1.040
1.056
1.060
1.072
1.100
1.100
1.084
1.080
1.076
1.060
1.052
1.040
1.024
1.000
0.996
1.004
1.020
1.028
1.036
1.036
1.036
1.036
1.040
1.040
1.060
1.068
1.056
1.060
1.052
1.044
1.056
1.040
0.992
0.976
0.996
0.980
0.976
0.984
0.984
0.972
0.968
0.980
1.000
1.012
1.032
1.040
1.060
1.084
1.104
1.104
1.096
1.080
1.064
1.052
1.040
1.036
1.036
1.052
1.052
1.052
1.056
1.076
1.080
1.100
1.120
1.124
1.144
1.160
1.168
1.156
1.152
1.124
1.116
1.108
1.092
1.092
1.088
1.072
1.068
1.072
1.068
1.072
1.092
1.088
1.108
1.108
1.092
1.084
1.076
1.056
1.040
1.020
1.008
0.996
0.968
0.948
0.928
0.936
0.952
0.956
0.940
0.944
0.948
0.952
0.960
0.960
0.956
0.960
0.948
0.936
0.920
0.892
0.880
0.856
0.848
0.848
0.844
0.836
0.832
0.820
0.840
0.856
0.864
0.872
0.876
0.872
0.864
0.868
0.864
0.864
0.840
0.828
0.820
0.796
0.756
0.756
0.772
0.764
0.760
0.756
0.748
0.784
0.816
0.840
0.844
0.844
0.848
0.832
0.828
0.832
0.828
0.796
0.772
0.740
0.740
0.724
0.712
0.692
0.684
0.704
0.716
0.736
0.756
0.768
0.764
0.752
0.724
0.704
0.672
0.624
0.600
0.588
0.576
0.576
0.588
0.600
0.616
0.636
0.656
0.688
0.724
0.788
0.844
0.928
1.000
1.084
1.172
1.272
1.352
1.444
1.544
1.640
1.744
1.840
1.916
1.988
2.052
2.124
2.200
2.260
2.332
2.412
2.448
2.452
2.416
2.344
2.240
2.128
1.972
1.780
1.600
1.440
1.308
1.204
1.116
1.000
0.920
0.864
0.836
0.840
0.848
0.868
0.888
0.924
0.928
0.908
0.880
0.884
0.912
0.876
0.852
0.828
0.804
0.776
0.760
0.736
0.728
0.712
0.712
0.712
0.728
0.736
0.728
0.740
0.752
0.772
0.760
0.748
0.716
0.688
0.660
0.640
0.648
0.644
0.620
0.616
0.620
0.620
0.616
0.636
0.632
0.640
0.640
0.660
0.676
0.680
0.676
0.664
0.648
0.648
0.652
0.652
0.636
0.616
0.596
0.592
0.588
0.596
0.604
0.604
0.612
0.624
0.640
0.656
0.664
0.668
0.668
0.680
0.656
0.644
0.632
0.616
0.592
0.580
0.580
0.576
0.576
0.588
0.588
0.584
0.592
0.608
0.620
0.636
0.628
0.636
0.628
0.628
0.624
0.632
0.612
0.600
0.584
0.564
0.552
0.544
0.548
0.544
0.548
0.556
0.572
0.592
0.612
0.632
0.624
0.604
0.596
0.636
0.640
0.636
0.620
0.588
0.564
0.576
0.572
0.568
0.532
0.524
0.532
0.548
0.564
0.588
0.608
0.620
0.632
0.640
0.636
0.640
0.636
0.620
0.616
0.600
0.604
0.588
0.576
0.576
0.576
0.584
0.580
0.572
0.576
0.584
0.584
0.624
0.632
0.652
0.656
0.672
0.660
0.656
0.668
0.644
0.624
0.592
0.592
0.588
0.580
0.592
0.584
0.588
0.604
0.644
0.652
0.668
0.660
0.672
0.688
0.676
0.676
0.688
0.692
0.676
0.648
0.652
0.648
0.636
0.616
0.596
0.600
0.616
0.636
0.644
0.664
0.676
0.696
0.712
0.700
0.680
0.668
0.680
0.680
0.672
0.676
0.660
0.648
0.644
0.656
0.664
0.640
0.640
0.660
0.696
0.704
0.700
0.716
0.732
0.724
0.700
0.696
0.664
0.652
0.648
0.636
0.616
0.608
0.600
0.596
0.592
0.600
0.584
0.588
0.596
0.596
0.620
0.620
0.616
0.596
0.600
0.604
0.592
0.576
0.544
0.532
0.500
0.476
0.464
0.428
0.416
0.432
0.452
0.448
0.452
0.448
0.456
0.432
0.440
0.444
0.440
0.424
0.424
0.428
0.392
0.356
0.320
0.312
0.288
0.292
0.292
0.296
0.292
0.280
0.280
0.288
0.312
0.308
0.304
0.288
0.304
0.308
0.276
0.256
0.240
0.228
0.208
0.204
0.200
0.200
0.208
0.216
0.216
0.196
0.220
0.240
0.268
0.264
0.268
0.268
0.264
0.244
0.244
0.240
0.228
0.204
0.184
0.172
0.148
0.148
0.152
0.164
0.172
0.172
0.168
0.164
0.188
0.200
0.212
0.216
0.212
0.212
0.196
0.196
0.176
0.152
0.128
0.112
0.104
0.096
0.096
0.100
0.100
0.116
0.116
0.116
0.132
0.148
0.164
0.184
0.196
0.192
0.172
0.168
0.156
0.124
0.116
0.116
0.116
0.108
0.104
0.120
0.116
0.116
0.128
0.128
0.144
0.156
0.152
0.156
0.152
0.132
0.124
0.120
0.104
0.088
0.064
0.072
0.084
0.080
0.076
0.052
0.052
0.068
0.076
0.096
0.124
0.136
0.140
0.136
0.120
0.100
0.104
0.104
0.096
0.092
0.076
0.060
0.056
0.048
0.032
0.020
0.028
0.048
0.060
0.064
0.096
0.100
0.104
0.116
0.128
0.108
0.076
0.060
0.040
0.040
0.016
0.012
0.028
0.028
0.032
0.028
0.012
0.016
0.020
0.036
0.052
0.044
0.076
0.096
0.088
0.060
0.028
0.000
-0.024
-0.048
-0.064
-0.060
-0.068
-0.060
-0.052
-0.040
-0.024
-0.016
0.000
0.008
0.024
0.036
0.048
0.048
0.044
0.028
0.024
-0.008
-0.032
-0.040
-0.056
-0.068
-0.072
-0.092
-0.088
-0.068
-0.060
-0.048
-0.040
-0.032
-0.020
-0.032
-0.016
-0.012
-0.016
-0.024
-0.036
-0.056
-0.076
-0.084
-0.112
-0.112
-0.108
-0.108
-0.108
-0.092
-0.092
-0.084
-0.064
-0.056
-0.052
-0.044
-0.040
-0.036
-0.028
-0.036
-0.040
-0.068
-0.092
-0.116
-0.140
-0.140
-0.144
-0.148
-0.156
-0.140
-0.116
-0.084
-0.064
-0.048
-0.024
-0.016
-0.044
-0.044
-0.028
-0.008
-0.004
-0.012
-0.020
-0.016
-0.036
-0.068
-0.084
-0.080
-0.072
-0.048
-0.044
-0.024
0.000
0.008
0.032
0.020
0.012
0.012
0.016
0.024
0.032
0.016
0.008
-0.016
-0.044
-0.048
-0.044
-0.044
-0.060
-0.056
-0.056
-0.056
-0.032
-0.044
-0.048
-0.036
-0.040
-0.044
-0.060
-0.076
-0.080
-0.092
-0.112
-0.148
-0.172
-0.164
-0.148
-0.140
-0.164
-0.180
-0.192
-0.172
-0.184
-0.168
-0.160
-0.156
-0.164
-0.176
-0.172
-0.188
-0.204
-0.220
-0.236
-0.248
-0.260
-0.276
-0.276
-0.288
-0.300
-0.304
-0.304
-0.308
-0.288
-0.268
-0.244
-0.248
-0.252
-0.240
-0.236
-0.244
-0.252
-0.280
-0.300
-0.324
-0.340
-0.336
-0.344
-0.364
-0.348
-0.316
-0.288
-0.276
-0.272
-0.248
-0.244
-0.268
-0.284
-0.292
-0.280
-0.296
-0.304
-0.308
-0.340
-0.344
-0.336
-0.332
-0.344
-0.372
-0.368
-0.368
-0.380
-0.372
-0.380
-0.388
-0.412
-0.424
-0.428
-0.440
-0.452
-0.472
-0.480
-0.484
-0.476
-0.468
-0.444
-0.424
-0.396
-0.368
-0.336
-0.280
-0.216
-0.132
-0.048
0.048
0.156
0.260
0.356
0.480
0.592
0.696
0.808
0.860
0.916
0.968
1.012
1.084
1.140
1.200
1.232
1.240
1.236
1.188
1.096
0.996
0.896
0.772
0.596
0.412
0.264
0.136
0.044
-0.064
-0.140
-0.212
-0.272
-0.304
-0.300
-0.304
-0.292
-0.280
-0.280
-0.252
-0.240
-0.216
-0.208
-0.188
-0.180
-0.192
-0.204
-0.220
-0.244
-0.268
-0.276
-0.304
-0.320
-0.344
-0.356
-0.364
-0.360
-0.356
-0.364
-0.352
-0.340
-0.348
-0.340
-0.328
-0.304
-0.304
-0.316
-0.344
-0.340
-0.344
-0.356
-0.376
-0.396
-0.396
-0.408
-0.424
-0.432
-0.420
-0.420
-0.408
-0.392
-0.368
-0.360
-0.360
-0.372
-0.368
-0.376
-0.368
-0.384
-0.396
-0.416
-0.444
-0.452
-0.444
-0.440
-0.440
-0.428
-0.416
-0.432
-0.424
-0.416
-0.392
-0.372
-0.364
-0.368
-0.380
-0.384
-0.384
-0.396
-0.400
-0.400
-0.432
-0.432
-0.440
-0.444
-0.452
-0.448
-0.428
-0.432
-0.440
-0.432
-0.408
-0.404
-0.388
-0.372
-0.376
-0.372
-0.372
-0.376
-0.392
-0.404
-0.420
-0.408
-0.428
-0.436
-0.428
-0.424
-0.428
-0.416
-0.400
-0.396
-0.376
-0.360
-0.376
-0.376
-0.368
-0.360
-0.352
-0.356
-0.384
-0.388
-0.400
-0.392
-0.408
-0.412
-0.412
-0.416
-0.408
-0.404
-0.396
-0.376
-0.352
-0.336
-0.328
-0.328
-0.328
-0.332
-0.348
-0.364
-0.368
-0.380
-0.392
-0.388
-0.384
-0.392
-0.396
-0.392
-0.388
-0.372
-0.352
-0.332
-0.316
-0.304
-0.288
-0.284
-0.284
-0.300
-0.292
-0.296
-0.312
-0.324
-0.344
-0.344
-0.348
-0.352
-0.352
-0.336
-0.336
-0.332
-0.312
-0.292
-0.268
-0.248
-0.236
-0.248
-0.244
-0.224
-0.224
-0.224
-0.236
-0.268
-0.288
-0.284
-0.284
-0.280
-0.284
-0.284
-0.280
-0.284
-0.256
-0.224
-0.196
-0.192
-0.192
-0.188
-0.188
-0.200
-0.204
-0.208
-0.192
-0.192
-0.220
-0.232
-0.244
-0.244
-0.240
-0.244
-0.240
-0.220
-0.204
-0.200
-0.180
-0.176
-0.172
-0.164
-0.164
-0.172
-0.184
-0.196
-0.212
-0.220
-0.248
-0.260
-0.272
-0.280
-0.264
-0.268
-0.292
-0.300
-0.292
-0.300
-0.284
-0.272
-0.268
-0.280
-0.300
-0.312
-0.320
-0.340
-0.368
-0.400
-0.408
-0.412
-0.432
-0.444
-0.448
-0.444
-0.432
-0.440
-0.428
-0.404
-0.396
-0.412
-0.416
-0.416
-0.420
-0.436
-0.444
-0.456
-0.476
-0.500
-0.532
-0.544
-0.552
-0.560
-0.564
-0.580
-0.588
-0.560
-0.532
-0.528
-0.516
-0.520
-0.544
-0.552
-0.536
-0.528
-0.532
-0.536
-0.568
-0.576
-0.600
-0.600
-0.612
-0.620
-0.620
-0.616
-0.608
-0.596
-0.580
-0.572
-0.568
-0.568
-0.552
-0.548
-0.560
-0.564
-0.584
-0.588
-0.612
-0.624
-0.636
-0.628
-0.636
-0.644
-0.648
-0.640
-0.632
-0.620
-0.612
-0.624
-0.608
-0.600
-0.604
-0.592
-0.576
-0.588
-0.584
-0.584
-0.596
-0.604
-0.624
-0.632
-0.648
-0.652
-0.664
-0.664
-0.648
-0.636
-0.632
-0.612
-0.580
-0.580
-0.580
-0.584
-0.576
-0.576
-0.568
-0.580
-0.608
-0.628
-0.640
-0.664
-0.652
-0.644
-0.664
-0.664
-0.656
-0.644
-0.636
-0.628
-0.608
-0.600
-0.592
-0.596
-0.596
-0.584
-0.568
-0.576
-0.588
-0.608
-0.640
-0.640
-0.652
-0.660
-0.652
-0.644
-0.644
-0.640
-0.620
-0.600
-0.588
-0.600
-0.592
-0.564
-0.560
-0.580
-0.604
-0.620
-0.608
-0.604
-0.648
-0.660
-0.664
-0.660
-0.664
-0.648
-0.648
-0.644
-0.644
-0.636
-0.612
-0.596
-0.592
-0.588
-0.584
-0.596
-0.604
-0.608
-0.628
-0.640
-0.656
-0.652
-0.652
-0.660
-0.664
-0.660
-0.656
-0.672
-0.672
-0.660
-0.624
-0.624
-0.608
-0.608
-0.604
-0.600
-0.612
-0.628
-0.636
-0.644
-0.660
-0.684
-0.684
-0.688
-0.700
-0.704
-0.696
-0.692
-0.660
-0.644
-0.624
-0.608
-0.600
-0.612
-0.632
-0.640
-0.656
-0.664
-0.676
-0.692
-0.708
-0.708
-0.700
-0.704
-0.712
-0.716
-0.708
-0.696
-0.672
-0.656
-0.636
-0.640
-0.640
-0.656
-0.664
-0.668
-0.664
-0.668
-0.668
-0.668
-0.700
-0.712
-0.708
-0.704
-0.708
-0.704
-0.712
-0.704
-0.648
-0.648
-0.660
-0.664
-0.648
-0.636
-0.636
-0.660
-0.656
-0.660
-0.672
-0.684
-0.696
-0.696
-0.688
-0.696
-0.700
-0.700
-0.700
-0.692
-0.676
-0.644
-0.600
-0.588
-0.584
-0.568
-0.556
-0.564
-0.588
-0.620
-0.624
-0.632
-0.652
-0.648
-0.636
-0.640
-0.652
-0.632
-0.616
-0.600
-0.592
-0.592
-0.560
-0.540
-0.536
-0.544
-0.544
-0.532
-0.516
-0.532
-0.560
-0.584
-0.592
-0.596
-0.604
-0.624
-0.632
-0.612
-0.604
-0.592
-0.580
-0.580
-0.564
-0.568
-0.584
-0.580
-0.584
-0.600
-0.628
-0.668
-0.692
-0.692
-0.704
-0.708
-0.700
-0.704
-0.712
-0.716
-0.716
-0.704
-0.692
-0.696
-0.688
-0.684
-0.680
-0.684
-0.696
-0.704
-0.688
-0.704
-0.736
-0.764
-0.788
-0.792
-0.796
-0.800
-0.804
-0.792
-0.792
-0.788
-0.772
-0.756
-0.748
-0.740
-0.732
-0.736
-0.736
-0.740
-0.732
-0.740
-0.772
-0.784
-0.792
-0.784
-0.804
-0.820
-0.808
-0.796
-0.804
-0.780
-0.772
-0.764
-0.744
-0.728
-0.732
-0.728
-0.720
-0.740
-0.760
-0.776
-0.792
-0.812
-0.828
-0.840
-0.836
-0.844
-0.844
-0.848
-0.864
-0.864
-0.860
-0.876
-0.888
-0.892
-0.900
-0.892
-0.880
-0.880
-0.852
-0.864
-0.876
-0.904
-0.888
-0.860
-0.840
-0.776
-0.700
-0.628
-0.536
-0.424
-0.336
-0.248
-0.152
-0.040
0.056
0.168
0.268
0.356
0.448
0.524
0.576
0.616
0.660
0.720
0.760
0.780
0.772
0.736
0.644
0.560
0.484
0.380
0.256
0.080
-0.080
-0.204
-0.300
-0.412
-0.488
-0.556
-0.604
-0.652
-0.696
-0.684
-0.668
-0.656
-0.660
-0.656
-0.652
-0.628
-0.608
-0.592
-0.580
-0.576
-0.588
-0.616
-0.624
-0.632
-0.644
-0.664
-0.684
-0.704
-0.740
-0.744
-0.748
-0.756
-0.764
-0.764
-0.768
-0.756
-0.744
-0.728
-0.724
-0.720
-0.720
-0.716
-0.704
-0.704
-0.704
-0.712
-0.732
-0.772
-0.792
-0.804
-0.788
-0.796
-0.808
-0.796
-0.784
-0.768
-0.752
-0.752
-0.748
-0.740
-0.740
-0.728
-0.728
-0.732
-0.740
-0.756
-0.772
-0.756
-0.764
-0.784
-0.776
-0.776
-0.780
-0.764
-0.756
-0.744
-0.748
-0.736
-0.720
-0.712
-0.712
-0.708
-0.704
-0.716
-0.716
-0.720
-0.736
-0.760
-0.776
-0.784
-0.776
-0.768
-0.764
-0.748
-0.752
-0.740
-0.724
-0.704
-0.716
-0.728
-0.712
-0.704
-0.704
-0.712
-0.724
-0.732
-0.748
-0.760
-0.752
-0.760
-0.756
-0.752
-0.756
-0.748
-0.748
-0.728
-0.728
-0.704
-0.680
-0.668
-0.652
-0.656
-0.660
-0.680
-0.688
-0.700
-0.720
-0.724
-0.716
-0.724
-0.740
-0.752
-0.752
-0.740
-0.736
-0.712
-0.688
-0.632
-0.608
-0.612
-0.612
-0.612
-0.624
-0.652
-0.640
-0.628
-0.636
-0.656
-0.668
-0.684
-0.684
-0.684
-0.680
-0.664
-0.660
-0.636
-0.632
-0.616
-0.620
-0.600
-0.592
-0.600
-0.600
-0.600
-0.600
-0.592
-0.600
-0.612
-0.612
-0.616
-0.632
-0.616
-0.608
-0.612
-0.608
-0.600
-0.592
-0.572
-0.536
-0.512
-0.504
-0.500
-0.500
-0.496
-0.508
-0.516
-0.516
-0.540
-0.556
-0.556
-0.568
-0.568
-0.556
-0.536
-0.536
-0.512
-0.476
-0.484
-0.504
-0.504
-0.500
-0.492
-0.484
-0.504
-0.488
-0.484
-0.496
-0.508
-0.512
-0.532
-0.528
-0.536
-0.532
-0.524
-0.524
-0.508
-0.504
-0.488
-0.476
-0.456
-0.456
-0.436
-0.456
-0.484
-0.492
-0.504
-0.524
-0.544
-0.556
-0.568
-0.572
-0.596
-0.608
-0.604
-0.596
-0.580
-0.556
-0.544
-0.528
-0.524
-0.536
-0.540
-0.548
-0.576
-0.588
-0.620
-0.656
-0.688
-0.696
-0.716
-0.712
-0.704
-0.704
-0.700
-0.704
-0.720
-0.712
-0.696
-0.664
-0.652
-0.660
-0.668
-0.680
-0.696
-0.712
-0.744
-0.756
-0.780
-0.804
-0.816
-0.804
-0.796
-0.808
-0.800
-0.796
-0.788
-0.792
-0.776
-0.768
-0.768
-0.776
-0.784
-0.788
-0.788
-0.788
-0.812
-0.824
-0.832
-0.836
-0.832
-0.832
-0.840
-0.840
-0.832
-0.824
-0.812
-0.808
-0.788
-0.772
-0.752
-0.760
-0.788
-0.804
-0.800
-0.796
-0.820
-0.836
-0.860
-0.868
-0.872
-0.876
-0.888
-0.900
-0.900
-0.888
-0.888
-0.888
-0.840
-0.832
-0.856
-0.848
-0.816
-0.796
-0.788
-0.800
-0.820
-0.836
-0.848
-0.856
-0.860
-0.848
-0.852
-0.868
-0.872
-0.856
-0.836
-0.832
-0.820
-0.812
-0.812
-0.804
-0.784
-0.796
-0.804
-0.800
-0.812
-0.836
-0.864
-0.868
-0.868
-0.872
-0.876
-0.868
-0.868
-0.860
-0.856
-0.840
-0.816
-0.808
-0.796
-0.784
-0.776
-0.780
-0.800
-0.812
-0.832
-0.844
-0.852
-0.852
-0.864
-0.868
-0.880
-0.876
-0.860
-0.844
-0.828
-0.816
-0.804
-0.796
-0.780
-0.780
-0.772
-0.776
-0.784
-0.788
-0.800
-0.816
-0.848
-0.860
-0.860
-0.864
-0.884
-0.872
-0.852
-0.844
-0.848
-0.848
-0.816
-0.800
-0.788
-0.784
-0.808
-0.828
-0.824
-0.820
-0.832
-0.840
-0.864
-0.872
-0.868
-0.852
-0.856
-0.860
-0.860
-0.868
-0.852
-0.828
-0.796
-0.796
-0.804
-0.804
-0.796
-0.796
-0.804
-0.820
-0.836
-0.856
-0.880
-0.884
-0.888
-0.880
-0.888
-0.892
-0.888
-0.868
-0.840
-0.832
-0.808
-0.812
-0.808
-0.804
-0.788
-0.800
-0.796
-0.800
-0.820
-0.844
-0.872
-0.888
-0.912
-0.916
-0.920
-0.892
-0.880
-0.884
-0.864
-0.856
-0.840
-0.832
-0.828
-0.820
-0.804
-0.828
-0.832
-0.840
-0.852
-0.868
-0.892
-0.896
-0.900
-0.900
-0.904
-0.892
-0.892
-0.900
-0.892
-0.872
-0.836
-0.840
-0.864
-0.872
-0.840
-0.840
-0.856
-0.872
-0.888
-0.876
-0.884
-0.876
-0.864
-0.868
-0.880
-0.872
-0.876
-0.880
-0.884
-0.872
-0.836
-0.828
-0.820
-0.816
-0.812
-0.812
-0.816
-0.840
-0.856
-0.880
-0.912
-0.908
-0.900
-0.900
-0.888
-0.880
-0.904
-0.892
-0.860
-0.828
-0.816
-0.800
-0.796
-0.776
-0.776
-0.784
-0.792
-0.788
-0.792
-0.800
-0.824
-0.828
-0.816
-0.804
-0.796
-0.780
-0.764
-0.756
-0.736
-0.728
-0.724
-0.736
-0.716
-0.704
-0.704
-0.696
-0.696
-0.708
-0.732
-0.744
-0.760
-0.768
-0.796
-0.816
-0.812
-0.788
-0.772
-0.748
-0.768
-0.780
-0.744
-0.740
-0.740
-0.744
-0.756
-0.780
-0.784
-0.800
-0.832
-0.852
-0.868
-0.876
-0.880
-0.880
-0.876
-0.880
-0.876
-0.876
-0.868
-0.848
-0.836
-0.848
-0.836
-0.828
-0.840
-0.852
-0.844
-0.860
-0.876
-0.892
-0.908
-0.936
-0.960
-0.968
-0.964
-0.952
-0.952
-0.928
-0.904
-0.896
-0.884
-0.880
-0.880
-0.880
-0.876
-0.884
-0.896
-0.916
-0.928
-0.928
-0.936
-0.940
-0.952
-0.960
-0.964
-0.940
-0.936
-0.928
-0.916
-0.912
-0.888
-0.880
-0.876
-0.864
-0.872
-0.892
-0.904
-0.920
-0.936
-0.952
-0.968
-0.964
-0.960
-0.964
-0.956
-0.972
-0.984
-1.004
-1.024
-1.016
-1.016
-1.028
-1.024
-1.020
-1.000
-1.016
-1.012
-1.008
-1.004
-0.996
-0.984
-0.964
-0.952
-0.912
-0.844
-0.768
-0.692
-0.596
-0.504
-0.408
-0.296
-0.196
-0.096
0.000
0.084
0.168
0.248
0.316
0.380
0.408
0.428
0.476
0.508
0.520
0.532
0.516
0.464
0.380
0.292
0.224
0.152
0.036
-0.140
-0.304
-0.392
-0.476
-0.572
-0.656
-0.708
-0.744
-0.784
-0.808
-0.832
-0.864
-0.872
-0.848
-0.832
-0.820
-0.816
-0.796
-0.752
-0.732
-0.716
-0.724
-0.724
-0.736
-0.748
-0.776
-0.788
-0.804
-0.828
-0.848
-0.872
-0.880
-0.896
-0.880
-0.884
-0.876
-0.852
-0.836
-0.816
-0.812
-0.820
-0.820
-0.820
-0.828
-0.840
-0.856
-0.868
-0.864
-0.884
-0.908
-0.920
-0.928
-0.916
-0.888
-0.896
-0.880
-0.860
-0.840
-0.820
-0.816
-0.812
-0.816
-0.824
-0.828
-0.820
-0.832
-0.844
-0.868
-0.892
-0.900
-0.904
-0.900
-0.912
-0.908
-0.872
-0.848
-0.840
-0.840
-0.828
-0.832
-0.840
-0.824
-0.816
-0.816
-0.816
-0.820
-0.844
-0.872
-0.900
-0.924
-0.920
-0.912
-0.928
-0.916
-0.904
-0.872
-0.856
-0.852
-0.840
-0.820
-0.812
-0.808
-0.800
-0.792
-0.796
-0.808
-0.828
-0.840
-0.852
-0.880
-0.892
-0.892
-0.880
-0.876
-0.876
-0.860
-0.840
-0.828
-0.796
-0.768
-0.760
-0.768
-0.768
-0.760
-0.768
-0.788
-0.808
-0.832
-0.828
-0.828
-0.828
-0.828
-0.816
-0.812
-0.804
-0.784
-0.768
-0.748
-0.724
-0.732
-0.740
-0.744
-0.740
-0.752
-0.760
-0.772
-0.760
-0.776
-0.768
-0.772
-0.772
-0.772
-0.768
-0.744
-0.740
-0.724
-0.728
-0.728
-0.712
-0.696
-0.696
-0.688
-0.684
-0.684
-0.672
-0.680
-0.700
-0.720
-0.720
-0.724
-0.720
-0.712
-0.732
-0.744
-0.748
-0.724
-0.704
-0.676
-0.632
-0.616
-0.596
-0.600
-0.600
-0.592
-0.588
-0.604
-0.612
-0.632
-0.644
-0.644
-0.636
-0.632
-0.628
-0.632
-0.640
-0.636
-0.608
-0.576
-0.564
-0.572
-0.580
-0.560
-0.560
-0.564
-0.556
-0.568
-0.568
-0.580
-0.580
-0.600
-0.608
-0.608
-0.608
-0.608
-0.616
-0.604
-0.576
-0.572
-0.556
-0.532
-0.536
-0.556
-0.548
-0.536
-0.528
-0.544
-0.560
-0.568
-0.584
-0.600
-0.608
-0.612
-0.616
-0.608
-0.624
-0.644
-0.640
-0.620
-0.612
-0.608
-0.636
-0.648
-0.656
-0.664
-0.656
-0.672
-0.692
-0.708
-0.716
-0.716
-0.716
-0.740
-0.760
-0.764
-0.776
-0.780
-0.764
-0.728
-0.740
-0.744
-0.748
-0.740
-0.744
-0.764
-0.780
-0.812
-0.828
-0.840
-0.856
-0.860
-0.872
-0.856
-0.864
-0.884
-0.872
-0.840
-0.824
-0.804
-0.800
-0.820
-0.824
-0.824
-0.828
-0.848
-0.856
-0.876
-0.876
-0.896
-0.904
-0.912
-0.920
-0.924
-0.928
-0.932
-0.928
-0.916
-0.904
-0.880
-0.868
-0.864
-0.872
-0.860
-0.852
-0.876
-0.892
-0.888
-0.896
-0.928
-0.936
-0.944
-0.948
-0.952
-0.948
-0.932
-0.920
-0.908
-0.892
-0.880
-0.868
-0.864
-0.860
-0.872
-0.868
-0.872
-0.860
-0.880
-0.888
-0.908
-0.916
-0.920
-0.920
-0.928
-0.924
-0.924
-0.916
-0.888
-0.868
-0.860
-0.872
-0.876
-0.876
-0.876
-0.868
-0.864
-0.864
-0.888
-0.908
-0.908
-0.896
-0.916
-0.940
-0.952
-0.932
-0.924
-0.916
-0.904
-0.884
-0.852
-0.836
-0.828
-0.820
-0.808
-0.800
-0.832
-0.864
-0.892
-0.900
-0.904
-0.896
-0.900
-0.912
-0.932
-0.936
-0.916
-0.892
-0.856
-0.852
-0.824
-0.820
-0.820
-0.816
-0.820
-0.828
-0.824
-0.824
-0.832
-0.860
-0.908
-0.948
-0.940
-0.920
-0.908
-0.896
-0.908
-0.904
-0.880
-0.864
-0.840
-0.836
-0.832
-0.832
-0.828
-0.840
-0.844
-0.856
-0.856
-0.856
-0.876
-0.884
-0.892
-0.900
-0.920
-0.904
-0.896
-0.900
-0.892
-0.868
-0.860
-0.860
-0.840
-0.848
-0.852
-0.844
-0.848
-0.848
-0.864
-0.876
-0.896
-0.904
-0.924
-0.920
-0.924
-0.920
-0.900
-0.872
-0.876
-0.868
-0.848
-0.840
-0.844
-0.844
-0.848
-0.852
-0.852
-0.852
-0.880
-0.904
-0.912
-0.928
-0.948
-0.948
-0.948
-0.944
-0.956
-0.948
-0.928
-0.880
-0.852
-0.844
-0.848
-0.852
-0.852
-0.848
-0.860
-0.884
-0.900
-0.912
-0.932
-0.928
-0.940
-0.940
-0.948
-0.940
-0.936
-0.908
-0.896
-0.876
-0.844
-0.836
-0.832
-0.832
-0.832
-0.832
-0.836
-0.860
-0.852
-0.832
-0.816
-0.832
-0.868
-0.876
-0.868
-0.852
-0.840
-0.844
-0.836
-0.816
-0.792
-0.788
-0.796
-0.804
-0.800
-0.816
-0.812
-0.804
-0.804
-0.792
-0.776
-0.784
-0.788
-0.780
-0.788
-0.776
-0.780
-0.788
-0.772
-0.748
-0.712
-0.732
-0.740
-0.724
-0.736
-0.744
-0.748
-0.756
-0.784
-0.800
-0.808
-0.820
-0.816
-0.820
-0.824
-0.824
-0.828
-0.828
-0.820
-0.816
-0.804
-0.812
-0.824
-0.824
-0.816
-0.816
-0.808
-0.824
-0.864
-0.888
-0.908
-0.912
-0.924
-0.936
-0.932
-0.920
-0.928
-0.936
-0.924
-0.908
-0.880
-0.884
-0.872
-0.872
-0.884
-0.888
-0.908
-0.904
-0.920
-0.920
-0.920
-0.952
-0.968
-0.968
-0.960
-0.956
-0.956
-0.944
-0.908
-0.900
-0.896
-0.900
-0.900
-0.912
-0.924
-0.948
-0.940
-0.936
-0.928
-0.944
-0.976
-0.980
-0.976
-0.964
-0.956
-0.944
-0.956
-0.972
-0.948
-0.916
-0.896
-0.896
-0.896
-0.904
-0.896
-0.912
-0.924
-0.944
-0.960
-0.976
-1.012
-1.040
-1.076
-1.092
-1.100
-1.112
-1.124
-1.108
-1.088
-1.060
-1.028
-0.976
-0.940
-0.904
-0.868
-0.812
-0.756
-0.700
-0.648
-0.592
-0.548
-0.460
-0.356
-0.272
-0.200
-0.104
0.016
0.128
0.228
0.316
0.400
0.456
0.528
0.564
0.568
0.568
0.580
0.528
0.460
0.368
0.272
0.176
0.096
-0.004
-0.128
-0.244
-0.384
-0.504
-0.604
-0.652
-0.676
-0.676
-0.684
-0.708
-0.760
-0.828
-0.844
-0.844
-0.856
-0.876
-0.876
-0.876
-0.880
-0.876
-0.864
-0.840
-0.832
-0.808
-0.788
-0.784
-0.776
-0.784
-0.792
-0.796
-0.796
-0.804
-0.824
-0.832
-0.828
-0.852
-0.876
-0.892
-0.888
-0.900
-0.920
-0.920
-0.896
-0.884
-0.860
-0.872
-0.864
-0.844
-0.832
-0.852
-0.852
-0.872
-0.872
-0.884
-0.892
-0.912
-0.928
-0.912
-0.912
-0.928
-0.920
-0.900
-0.880
-0.876
-0.864
-0.852
-0.824
-0.820
-0.824
-0.820
-0.816
-0.812
-0.812
-0.820
-0.860
-0.896
-0.904
-0.892
-0.892
-0.888
-0.884
-0.880
-0.888
-0.880
-0.872
-0.852
-0.832
-0.820
-0.808
-0.804
-0.804
-0.812
-0.812
-0.840
-0.860
-0.884
-0.888
-0.892
-0.868
-0.880
-0.884
-0.872
-0.860
-0.832
-0.824
-0.816
-0.804
-0.796
-0.792
-0.796
-0.784
-0.796
-0.800
-0.808
-0.816
-0.828
-0.844
-0.852
-0.856
-0.852
-0.844
-0.844
-0.828
-0.816
-0.800
-0.780
-0.768
-0.756
-0.756
-0.732
-0.724
-0.748
-0.748
-0.756
-0.756
-0.784
-0.816
-0.824
-0.832
-0.824
-0.832
-0.816
-0.804
-0.792
-0.784
-0.772
-0.736
-0.724
-0.724
-0.712
-0.696
-0.688
-0.692
-0.708
-0.736
-0.740
-0.740
-0.752
-0.748
-0.740
-0.744
-0.724
-0.720
-0.716
-0.704
-0.708
-0.684
-0.656
-0.636
-0.640
-0.636
-0.644
-0.640
-0.660
-0.680
-0.688
-0.696
-0.692
-0.684
-0.680
-0.680
-0.680
-0.684
-0.656
-0.624
-0.612
-0.596
-0.568
-0.560
-0.568
-0.572
-0.584
-0.592
-0.596
-0.612
-0.624
-0.636
-0.648
-0.652
-0.680
-0.680
-0.648
-0.636
-0.616
-0.584
-0.556
-0.544
-0.544
-0.552
-0.540
-0.548
-0.548
-0.556
-0.576
-0.592
-0.600
-0.612
-0.628
-0.640
-0.648
-0.660
-0.648
-0.628
-0.604
-0.608
-0.592
-0.580
-0.576
-0.576
-0.572
-0.576
-0.584
-0.604
-0.628
-0.648
-0.660
-0.680
-0.692
-0.704
-0.716
-0.716
-0.696
-0.692
-0.676
-0.664
-0.660
-0.664
-0.668
-0.668
-0.680
-0.680
-0.692
-0.704
-0.732
-0.752
-0.764
-0.780
-0.800
-0.812
-0.820
-0.828
-0.836
-0.832
-0.824
-0.812
-0.800
-0.804
-0.800
-0.796
-0.808
-0.804
-0.808
-0.808
-0.820
-0.824
-0.836
-0.848
-0.852
-0.868
-0.896
-0.884
-0.872
-0.868
-0.860
-0.852
-0.824
-0.828
-0.820
-0.824
-0.808
-0.804
-0.828
-0.828
-0.840
-0.856
-0.888
-0.904
-0.920
-0.924
-0.908
-0.928
-0.908
-0.892
-0.880
-0.872
-0.856
-0.852
-0.856
-0.848
-0.856
-0.852
-0.868
-0.876
-0.876
-0.872
-0.892
-0.904
-0.912
-0.916
-0.916
-0.920
-0.920
-0.912
-0.892
-0.856
-0.848
-0.844
-0.836
-0.836
-0.848
-0.864
-0.876
-0.876
-0.880
-0.880
-0.896
-0.904
-0.932
-0.924
-0.924
-0.920
-0.908
-0.908
-0.896
-0.884
-0.856
-0.848
-0.840
-0.836
-0.860
-0.856
-0.848
-0.840
-0.848
-0.864
-0.876
-0.892
-0.904
-0.908
-0.892
-0.896
-0.888
-0.880
-0.880
-0.864
-0.840
-0.836
-0.840
-0.824
-0.816
-0.820
-0.836
-0.848
-0.860
-0.872
-0.884
-0.900
-0.912
-0.904
-0.900
-0.884
-0.884
-0.880
-0.868
-0.852
-0.828
-0.808
-0.792
-0.796
-0.800
-0.804
-0.812
-0.832
-0.856
-0.868
-0.864
-0.876
-0.888
-0.892
-0.888
-0.900
-0.888
-0.892
-0.860
-0.840
-0.816
-0.796
-0.788
-0.784
-0.780
-0.792
-0.812
-0.820
-0.832
-0.844
-0.856
-0.864
-0.872
-0.876
-0.896
-0.896
-0.888
-0.880
-0.856
-0.840
-0.824
-0.816
-0.808
-0.828
-0.824
-0.816
-0.820
-0.824
-0.852
-0.876
-0.888
-0.880
-0.880
-0.876
-0.876
-0.876
-0.880
-0.872
-0.856
-0.852
-0.840
-0.840
-0.840
-0.840
-0.828
-0.816
-0.820
-0.828
-0.844
-0.860
-0.888
-0.908
-0.912
-0.908
-0.908
-0.896
-0.876
-0.868
-0.852
-0.848
-0.836
-0.844
-0.844
-0.840
-0.820
-0.812
-0.824
-0.828
-0.844
-0.856
-0.872
-0.884
-0.888
-0.896
-0.900
-0.916
-0.924
-0.908
-0.880
-0.884
-0.852
-0.828
-0.824
-0.824
-0.824
-0.832
-0.836
-0.852
-0.864
-0.868
-0.892
-0.900
-0.896
-0.884
-0.884
-0.892
-0.892
-0.880
-0.868
-0.852
-0.824
-0.820
-0.808
-0.800
-0.788
-0.796
-0.796
-0.792
-0.796
-0.808
-0.824
-0.820
-0.816
-0.808
-0.812
-0.808
-0.796
-0.784
-0.776
-0.756
-0.740
-0.736
-0.736
-0.736
-0.720
-0.720
-0.716
-0.700
-0.716
-0.740
-0.748
-0.736
-0.744
-0.748
-0.752
-0.752
-0.744
-0.732
-0.716
-0.704
-0.696
-0.688
-0.684
-0.684
-0.668
-0.676
-0.720
-0.740
-0.752
-0.756
-0.768
-0.788
-0.812
-0.832
-0.824
-0.812
-0.820
-0.832
-0.808
-0.792
-0.780
-0.784
-0.780
-0.784
-0.780
-0.804
-0.812
-0.812
-0.828
-0.844
-0.876
-0.880
-0.892
-0.912
-0.900
-0.884
-0.876
-0.868
-0.864
-0.856
-0.832
-0.828
-0.828
-0.844
-0.848
-0.864
-0.884
-0.884
-0.892
-0.904
-0.924
-0.920
-0.928
-0.936
-0.936
-0.936
-0.932
-0.912
-0.892
-0.888
-0.880
-0.868
-0.836
-0.816
-0.808
-0.820
-0.836
-0.856
-0.868
-0.880
-0.912
-0.912
-0.912
-0.932
-0.932
-0.920
-0.904
-0.896
-0.888
-0.880
-0.864
-0.860
-0.864
-0.880
-0.884
-0.908
-0.916
-0.944
-0.988
-1.024
-1.052
-1.072
-1.072
-1.068
-1.052
-1.028
-0.996
-0.972
-0.936
-0.904
-0.856
-0.788
-0.712
-0.628
-0.544
-0.476
-0.400
-0.320
-0.256
-0.176
-0.104
-0.008
0.104
0.188
0.264
0.356
0.432
0.492
0.540
0.596
0.668
0.704
0.716
0.696
0.632
0.532
0.416
0.304
0.176
0.008
-0.176
-0.324
-0.420
-0.512
-0.604
-0.660
-0.704
-0.720
-0.728
-0.744
-0.740
-0.724
-0.708
-0.668
-0.648
-0.652
-0.656
-0.684
-0.720
-0.756
-0.768
-0.772
-0.788
-0.788
-0.784
-0.764
-0.744
-0.740
-0.732
-0.736
-0.732
-0.732
-0.728
-0.736
-0.752
-0.764
-0.776
-0.796
-0.808
-0.812
-0.832
-0.844
-0.848
-0.848
-0.852
-0.840
-0.832
-0.812
-0.800
-0.788
-0.772
-0.776
-0.772
-0.780
-0.792
-0.804
-0.808
-0.808
-0.816
-0.828
-0.832
-0.852
-0.860
-0.844
-0.844
-0.848
-0.840
-0.840
-0.832
-0.820
-0.796
-0.776
-0.748
-0.748
-0.748
-0.752
-0.780
-0.776
-0.780
-0.788
-0.816
-0.828
-0.844
-0.844
-0.832
-0.804
-0.792
-0.788
-0.784
-0.764
-0.744
-0.756
-0.760
-0.752
-0.748
-0.760
-0.764
-0.768
-0.768
-0.780
-0.812
-0.816
-0.808
-0.816
-0.800
-0.788
-0.780
-0.768
-0.752
-0.732
-0.720
-0.720
-0.712
-0.712
-0.720
-0.736
-0.736
-0.736
-0.744
-0.756
-0.768
-0.768
-0.768
-0.752
-0.748
-0.748
-0.752
-0.740
-0.724
-0.704
-0.680
-0.668
-0.672
-0.668
-0.676
-0.680
-0.672
-0.684
-0.692
-0.688
-0.716
-0.732
-0.720
-0.724
-0.732
-0.712
-0.692
-0.668
-0.652
-0.644
-0.616
-0.596
-0.600
-0.616
-0.632
-0.628
-0.620
-0.620
-0.624
-0.644
-0.672
-0.684
-0.680
-0.668
-0.680
-0.664
-0.652
-0.632
-0.616
-0.600
-0.568
-0.560
-0.560
-0.552
-0.548
-0.548
-0.552
-0.556
-0.560
-0.568
-0.580
-0.580
-0.596
-0.604
-0.592
-0.572
-0.564
-0.524
-0.496
-0.472
-0.464
-0.472
-0.480
-0.480
-0.472
-0.484
-0.492
-0.504
-0.524
-0.548
-0.552
-0.568
-0.572
-0.560
-0.564
-0.556
-0.552
-0.528
-0.496
-0.476
-0.452
-0.436
-0.452
-0.468
-0.460
-0.472
-0.480
-0.484
-0.460
-0.472
-0.484
-0.484
-0.500
-0.516
-0.524
-0.524
-0.512
-0.496
-0.484
-0.472
-0.464
-0.472
-0.472
-0.480
-0.464
-0.464
-0.484
-0.504
-0.528
-0.556
-0.588
-0.600
-0.600
-0.616
-0.628
-0.624
-0.620
-0.608
-0.616
-0.604
-0.592
-0.592
-0.600
-0.612
-0.616
-0.632
-0.640
-0.652
-0.660
-0.688
-0.716
-0.732
-0.724
-0.720
-0.732
-0.736
-0.744
-0.724
-0.712
-0.700
-0.688
-0.672
-0.684
-0.696
-0.700
-0.716
-0.732
-0.768
-0.788
-0.800
-0.804
-0.788
-0.772
-0.780
-0.792
-0.788
-0.796
-0.768
-0.740
-0.720
-0.720
-0.728
-0.736
-0.736
-0.740
-0.748
-0.756
-0.772
-0.768
-0.780
-0.796
-0.808
-0.808
-0.836
-0.828
-0.808
-0.812
-0.796
-0.804
-0.788
-0.772
-0.776
-0.768
-0.756
-0.768
-0.764
-0.780
-0.796
-0.788
-0.788
-0.820
-0.836
-0.848
-0.832
-0.828
-0.808
-0.804
-0.780
-0.756
-0.728
-0.720
-0.712
-0.708
-0.716
-0.724
-0.736
-0.748
-0.768
-0.784
-0.808
-0.804
-0.804
-0.812
-0.816
-0.820
-0.800
-0.784
-0.776
-0.752
-0.740
-0.732
-0.720
-0.724
-0.728
-0.732
-0.744
-0.748
-0.764
-0.776
-0.816
-0.836
-0.820
-0.808
-0.820
-0.812
-0.808
-0.800
-0.764
-0.756
-0.740
-0.732
-0.728
-0.712
-0.696
-0.688
-0.696
-0.712
-0.720
-0.740
-0.776
-0.776
-0.784
-0.792
-0.808
-0.812
-0.808
-0.804
-0.776
-0.760
-0.740
-0.724
-0.720
-0.716
-0.708
-0.712
-0.736
-0.748
-0.772
-0.784
-0.812
-0.812
-0.804
-0.800
-0.800
-0.812
-0.812
-0.796
-0.780
-0.772
-0.748
-0.720
-0.712
-0.720
-0.728
-0.736
-0.744
-0.748
-0.764
-0.776
-0.784
-0.784
-0.804
-0.804
-0.804
-0.792
-0.772
-0.780
-0.768
-0.760
-0.744
-0.736
-0.720
-0.708
-0.716
-0.724
-0.748
-0.744
-0.732
-0.740
-0.776
-0.792
-0.792
-0.784
-0.800
-0.800
-0.780
-0.796
-0.792
-0.780
-0.752
-0.736
-0.740
-0.732
-0.728
-0.736
-0.756
-0.756
-0.768
-0.772
-0.788
-0.808
-0.824
-0.824
-0.836
-0.828
-0.820
-0.816
-0.800
-0.784
-0.764
-0.768
-0.764
-0.756
-0.752
-0.748
-0.736
-0.732
-0.752
-0.764
-0.792
-0.796
-0.804
-0.812
-0.816
-0.816
-0.800
-0.820
-0.800
-0.788
-0.784
-0.764
-0.756
-0.748
-0.740
-0.752
-0.760
-0.780
-0.788
-0.788
-0.796
-0.800
-0.820
-0.836
-0.828
-0.816
-0.800
-0.784
-0.768
-0.760
-0.756
-0.744
-0.744
-0.760
-0.768
-0.768
-0.768
-0.772
-0.776
-0.768
-0.792
-0.788
-0.784
-0.776
-0.784
-0.788
-0.780
-0.752
-0.724
-0.700
-0.676
-0.672
-0.660
-0.648
-0.656
-0.656
-0.652
-0.664
-0.660
-0.652
-0.672
-0.696
-0.720
-0.744
-0.764
-0.724
-0.692
-0.680
-0.656
-0.648
-0.636
-0.620
-0.584
-0.552
-0.544
-0.544
-0.564
-0.592
-0.600
-0.620
-0.656
-0.672
-0.684
-0.684
-0.688
-0.688
-0.676
-0.664
-0.648
-0.632
-0.616
-0.620
-0.628
-0.640
-0.648
-0.660
-0.672
-0.688
-0.704
-0.708
-0.732
-0.748
-0.768
-0.772
-0.772
-0.760
-0.752
-0.740
-0.728
-0.728
-0.724
-0.728
-0.732
-0.752
-0.756
-0.748
-0.748
-0.776
-0.808
-0.820
-0.828
-0.816
-0.836
-0.836
-0.832
-0.824
-0.824
-0.812
-0.800
-0.792
-0.764
-0.744
-0.744
-0.760
-0.748
-0.752
-0.768
-0.772
-0.792
-0.792
-0.812
-0.828
-0.840
-0.828
-0.828
-0.820
-0.820
-0.812
-0.804
-0.784
-0.768
-0.772
-0.768
-0.764
-0.756
-0.760
-0.772
-0.788
-0.788
-0.812
-0.844
-0.856
-0.864
-0.860
-0.876
-0.892
-0.904
-0.908
-0.912
-0.924
-0.920
-0.916
-0.904
-0.912
-0.904
-0.896
-0.864
-0.844
-0.836
-0.808
-0.816
-0.788
-0.752
-0.688
-0.600
-0.508
-0.416
-0.332
-0.224
-0.112
0.008
0.120
0.256
0.356
0.424
0.500
0.564
0.612
0.656
0.732
0.780
0.800
0.800
0.768
0.704
0.608
0.496
0.392
0.264
0.112
-0.032
-0.164
-0.276
-0.368
-0.448
-0.524
-0.568
-0.584
-0.608
-0.628
-0.648
-0.668
-0.664
-0.676
-0.668
-0.656
-0.636
-0.628
-0.608
-0.600
-0.572
-0.556
-0.560
-0.576
-0.576
-0.608
-0.644
-0.660
-0.684
-0.696
-0.712
-0.720
-0.720
-0.720
-0.720
-0.712
-0.724
-0.716
-0.708
-0.712
-0.700
-0.688
-0.680
-0.676
-0.676
-0.684
-0.692
-0.708
-0.732
-0.740
-0.760
-0.764
-0.764
-0.760
-0.760
-0.748
-0.744
-0.748
-0.748
-0.728
-0.688
-0.672
-0.668
-0.664
-0.676
-0.692
-0.700
-0.696
-0.716
-0.728
-0.748
-0.744
-0.752
-0.756
-0.744
-0.736
-0.716
-0.708
-0.700
-0.692
-0.680
-0.672
-0.668
-0.664
-0.656
-0.652
-0.652
-0.656
-0.676
-0.704
-0.724
-0.716
-0.720
-0.712
-0.712
-0.708
-0.712
-0.696
-0.680
-0.656
-0.632
-0.624
-0.620
-0.616
-0.616
-0.632
-0.636
-0.648
-0.668
-0.684
-0.700
-0.700
-0.696
-0.688
-0.680
-0.672
-0.652
-0.628
-0.616
-0.608
-0.604
-0.620
-0.620
-0.588
-0.576
-0.568
-0.576
-0.608
-0.612
-0.628
-0.656
-0.660
-0.656
-0.648
-0.656
-0.644
-0.632
-0.616
-0.592
-0.580
-0.560
-0.544
-0.524
-0.524
-0.524
-0.516
-0.516
-0.528
-0.548
-0.584
-0.596
-0.588
-0.580
-0.576
-0.572
-0.576
-0.568
-0.536
-0.528
-0.524
-0.496
-0.484
-0.468
-0.460
-0.460
-0.460
-0.492
-0.496
-0.488
-0.504
-0.528
-0.540
-0.532
-0.520
-0.500
-0.476
-0.472
-0.448
-0.432
-0.408
-0.376
-0.356
-0.352
-0.376
-0.384
-0.388
-0.388
-0.404
-0.424
-0.432
-0.440
-0.448
-0.448
-0.444
-0.428
-0.408
-0.400
-0.384
-0.380
-0.364
-0.344
-0.340
-0.328
-0.328
-0.332
-0.336
-0.332
-0.336
-0.352
-0.368
-0.384
-0.384
-0.376
-0.380
-0.364
-0.348
-0.344
-0.344
-0.344
-0.324
-0.308
-0.312
-0.312
-0.304
-0.308
-0.320
-0.340
-0.344
-0.344
-0.344
-0.360
-0.380
-0.400
-0.412
-0.420
-0.416
-0.424
-0.420
-0.420
-0.412
-0.400
-0.392
-0.392
-0.396
-0.408
-0.436
-0.444
-0.448
-0.472
-0.496
-0.508
-0.516
-0.536
-0.548
-0.556
-0.540
-0.544
-0.540
-0.528
-0.520
-0.520
-0.520
-0.528
-0.516
-0.512
-0.524
-0.524
-0.536
-0.560
-0.588
-0.596
-0.608
-0.616
-0.624
-0.632
-0.620
-0.620
-0.608
-0.604
-0.600
-0.596
-0.600
-0.592
-0.584
-0.576
-0.580
-0.596
-0.620
-0.632
-0.636
-0.648
-0.652
-0.652
-0.660
-0.660
-0.664
-0.656
-0.648
-0.636
-0.612
-0.620
-0.616
-0.608
-0.612
-0.608
-0.604
-0.600
-0.616
-0.624
-0.632
-0.640
-0.656
-0.672
-0.684
-0.692
-0.676
-0.672
-0.648
-0.632
-0.616
-0.596
-0.596
-0.584
-0.584
-0.584
-0.592
-0.604
-0.612
-0.612
-0.636
-0.652
-0.660
-0.660
-0.644
-0.644
-0.636
-0.640
-0.628
-0.620
-0.600
-0.588
-0.584
-0.576
-0.564
-0.556
-0.556
-0.560
-0.580
-0.612
-0.628
-0.644
-0.648
-0.636
-0.636
-0.644
-0.636
-0.636
-0.632
-0.604
-0.568
-0.556
-0.548
-0.544
-0.528
-0.532
-0.548
-0.564
-0.584
-0.596
-0.620
-0.620
-0.616
-0.604
-0.600
-0.604
-0.600
-0.588
-0.580
-0.564
-0.552
-0.556
-0.552
-0.544
-0.540
-0.536
-0.544
-0.544
-0.544
-0.556
-0.576
-0.600
-0.612
-0.588
-0.600
-0.608
-0.600
-0.608
-0.584
-0.568
-0.540
-0.516
-0.520
-0.520
-0.520
-0.520
-0.524
-0.512
-0.540
-0.564
-0.592
-0.592
-0.604
-0.620
-0.620
-0.596
-0.572
-0.556
-0.556
-0.556
-0.524
-0.496
-0.488
-0.492
-0.492
-0.504
-0.524
-0.532
-0.540
-0.544
-0.584
-0.596
-0.584
-0.584
-0.608
-0.616
-0.600
-0.572
-0.552
-0.548
-0.528
-0.508
-0.512
-0.516
-0.500
-0.492
-0.508
-0.528
-0.548
-0.540
-0.548
-0.552
-0.576
-0.576
-0.580
-0.576
-0.568
-0.564
-0.560
-0.548
-0.528
-0.508
-0.496
-0.492
-0.488
-0.504
-0.528
-0.532
-0.540
-0.536
-0.540
-0.544
-0.552
-0.572
-0.568
-0.572
-0.568
-0.564
-0.544
-0.528
-0.504
-0.484
-0.488
-0.480
-0.484
-0.480
-0.484
-0.488
-0.508
-0.524
-0.552
-0.568
-0.560
-0.572
-0.568
-0.568
-0.556
-0.540
-0.520
-0.500
-0.484
-0.480
-0.484
-0.488
-0.484
-0.496
-0.520
-0.528
-0.548
-0.560
-0.552
-0.536
-0.540
-0.548
-0.548
-0.544
-0.532
-0.528
-0.496
-0.476
-0.460
-0.452
-0.444
-0.452
-0.456
-0.472
-0.472
-0.480
-0.500
-0.504
-0.528
-0.544
-0.532
-0.508
-0.508
-0.492
-0.488
-0.456
-0.420
-0.396
-0.380
-0.372
-0.364
-0.356
-0.348
-0.356
-0.340
-0.356
-0.388
-0.384
-0.396
-0.404
-0.404
-0.384
-0.376
-0.384
-0.396
-0.384
-0.364
-0.344
-0.304
-0.296
-0.296
-0.300
-0.296
-0.296
-0.304
-0.328
-0.344
-0.356
-0.368
-0.376
-0.388
-0.388
-0.380
-0.384
-0.380
-0.376
-0.368
-0.360
-0.352
-0.352
-0.340
-0.336
-0.344
-0.356
-0.368
-0.372
-0.404
-0.412
-0.444
-0.468
-0.476
-0.468
-0.468
-0.460
-0.452
-0.448
-0.432
-0.432
-0.408
-0.396
-0.400
-0.404
-0.412
-0.408
-0.412
-0.416
-0.436
-0.456
-0.480
-0.488
-0.508
-0.508
-0.512
-0.512
-0.508
-0.512
-0.484
-0.468
-0.452
-0.436
-0.420
-0.416
-0.412
-0.412
-0.416
-0.412
-0.424
-0.444
-0.456
-0.464
-0.476
-0.468
-0.468
-0.452
-0.448
-0.456
-0.440
-0.436
-0.416
-0.416
-0.408
-0.400
-0.392
-0.400
-0.412
-0.408
-0.424
-0.448
-0.480
-0.488
-0.512
-0.540
-0.572
-0.588
-0.584
-0.568
-0.556
-0.548
-0.516
-0.496
-0.472
-0.444
-0.424
-0.404
-0.392
-0.376
-0.336
-0.268
-0.220
-0.156
-0.088
-0.016
0.080
0.180
0.276
0.376
0.524
0.664
0.768
0.836
0.936
0.992
1.040
1.104
1.180
1.208
1.224
1.212
1.168
1.088
0.964
0.860
0.760
0.624
0.444
0.292
0.184
0.112
0.040
-0.028
-0.084
-0.132
-0.168
-0.196
-0.204
-0.196
-0.204
-0.200
-0.212
-0.220
-0.224
-0.212
-0.208
-0.220
-0.216
-0.204
-0.184
-0.188
-0.188
-0.176
-0.176
-0.176
-0.184
-0.204
-0.200
-0.232
-0.260
-0.296
-0.316
-0.320
-0.320
-0.320
-0.320
-0.320
-0.328
-0.312
-0.292
-0.256
-0.232
-0.228
-0.224
-0.228
-0.224
-0.232
-0.224
-0.228
-0.248
-0.268
-0.284
-0.288
-0.280
-0.272
-0.268
-0.268
-0.264
-0.252
-0.244
-0.232
-0.220
-0.228
-0.204
-0.188
-0.192
-0.188
-0.192
-0.224
-0.236
-0.244
-0.264
-0.260
-0.256
-0.244
-0.236
-0.240
-0.232
-0.220
-0.208
-0.196
-0.176
-0.168
-0.156
-0.160
-0.152
-0.152
-0.148
-0.148
-0.164
-0.196
-0.236
-0.252
-0.244
-0.244
-0.232
-0.224
-0.212
-0.196
-0.184
-0.168
-0.136
-0.120
-0.112
-0.124
-0.120
-0.112
-0.120
-0.140
-0.152
-0.168
-0.200
-0.188
-0.164
-0.152
-0.156
-0.152
-0.136
-0.104
-0.092
-0.084
-0.068
-0.072
-0.068
-0.068
-0.072
-0.072
-0.048
-0.040
-0.060
-0.076
-0.096
-0.108
-0.104
-0.116
-0.108
-0.084
-0.076
-0.072
-0.056
-0.036
0.004
0.016
0.032
0.052
0.040
0.020
0.004
0.008
0.012
0.004
0.000
0.004
0.008
0.024
0.020
0.016
0.024
0.032
0.044
0.044
0.060
0.080
0.084
0.100
0.104
0.116
0.120
0.120
0.140
0.112
0.096
0.080
0.092
0.100
0.112
0.124
0.132
0.140
0.168
0.156
0.168
0.192
0.208
0.216
0.220
0.204
0.200
0.208
0.200
0.192
0.180
0.176
0.172
0.160
0.156
0.172
0.188
0.204
0.212
0.216
0.260
0.292
0.300
0.304
0.300
0.300
0.292
0.272
0.256
0.252
0.248
0.248
0.252
0.248
0.260
0.264
0.264
0.268
0.296
0.320
0.332
0.328
0.324
0.340
0.332
0.324
0.324
0.300
0.276
0.244
0.236
0.216
0.176
0.172
0.200
0.204
0.204
0.220
0.228
0.232
0.236
0.232
0.236
0.236
0.224
0.208
0.200
0.176
0.172
0.140
0.116
0.100
0.084
0.052
0.048
0.068
0.076
0.104
0.128
0.124
0.120
0.116
0.120
0.124
0.116
0.108
0.100
0.092
0.076
0.068
0.052
0.032
-0.004
-0.016
-0.012
0.008
0.024
0.036
0.044
0.052
0.064
0.060
0.064
0.060
0.064
0.064
0.056
0.048
0.024
0.012
-0.004
-0.012
-0.024
-0.032
-0.024
-0.008
-0.020
-0.012
0.012
0.024
0.024
0.032
0.044
0.060
0.060
0.040
0.040
0.040
0.048
0.028
0.032
0.020
0.012
0.012
0.012
0.024
0.016
0.032
0.056
0.072
0.100
0.096
0.096
0.092
0.072
0.060
0.060
0.052
0.048
0.036
0.020
0.008
0.000
0.000
0.012
0.032
0.048
0.052
0.068
0.092
0.104
0.116
0.100
0.100
0.096
0.092
0.096
0.080
0.056
0.040
0.044
0.048
0.052
0.024
0.016
0.012
0.032
0.076
0.104
0.128
0.144
0.140
0.148
0.156
0.156
0.144
0.140
0.124
0.112
0.092
0.084
0.084
0.084
0.084
0.076
0.092
0.104
0.112
0.128
0.148
0.144
0.144
0.156
0.164
0.172
0.160
0.132
0.116
0.120
0.120
0.116
0.112
0.104
0.084
0.084
0.100
0.112
0.116
0.132
0.152
0.160
0.176
0.172
0.172
0.164
0.160
0.164
0.136
0.120
0.108
0.104
0.100
0.120
0.124
0.116
0.132
0.140
0.160
0.164
0.176
0.196
0.212
0.212
0.216
0.212
0.204
0.184
0.160
0.148
0.140
0.136
0.128
0.140
0.160
0.156
0.152
0.136
0.152
0.164
0.188
0.208
0.216
0.232
0.236
0.232
0.200
0.192
0.180
0.156
0.120
0.104
0.104
0.124
0.116
0.124
0.132
0.140
0.168
0.188
0.204
0.212
0.224
0.240
0.244
0.220
0.212
0.204
0.196
0.188
0.160
0.152
0.152
0.144
0.148
0.156
0.160
0.164
0.184
0.200
0.212
0.208
0.200
0.188
0.184
0.192
0.212
0.228
0.216
0.208
0.164
0.140
0.124
0.128
0.132
0.152
0.172
0.180
0.188
0.192
0.216
0.228
0.220
0.240
0.248
0.252
0.240
0.232
0.212
0.200
0.192
0.184
0.196
0.192
0.196
0.200
0.192
0.192
0.212
0.220
0.260
0.288
0.296
0.312
0.320
0.324
0.332
0.336
0.304
0.280
0.276
0.252
0.248
0.256
0.248
0.260
0.268
0.268
0.284
0.308
0.324
0.340
0.344
0.360
0.380
0.404
0.408
0.384
0.360
0.352
0.336
0.336
0.336
0.340
0.340
0.340
0.328
0.340
0.352
0.360
0.372
0.388
0.392
0.392
0.384
0.372
0.360
0.336
0.320
0.308
0.276
0.248
0.256
0.260
0.272
0.280
0.272
0.276
0.300
0.292
0.296
0.296
0.300
0.296
0.300
0.300
0.296
0.276
0.264
0.240
0.216
0.208
0.208
0.216
0.196
0.184
0.196
0.216
0.232
0.256
0.276
0.272
0.256
0.248
0.264
0.252
0.248
0.232
0.208
0.188
0.184
0.200
0.208
0.216
0.204
0.200
0.200
0.224
0.236
0.236
0.260
0.268
0.276
0.280
0.276
0.268
0.272
0.256
0.240
0.228
0.216
0.200
0.184
0.196
0.212
0.220
0.220
0.208
0.208
0.224
0.232
0.232
0.224
0.208
0.184
0.160
0.144
0.132
0.116
0.096
0.080
0.096
0.124
0.140
0.168
0.204
0.236
0.308
0.396
0.492
0.584
0.664
0.752
0.836
0.932
1.008
1.096
1.188
1.276
1.340
1.388
1.448
1.504
1.564
1.628
1.684
1.708
1.708
1.724
1.704
1.648
1.556
1.472
1.388
1.292
1.168
1.064
0.924
0.784
0.632
0.520
0.452
0.404
0.392
0.372
0.332
0.292
0.268
0.268
0.312
0.340
0.344
0.356
0.368
0.388
0.408
0.412
0.404
0.388
0.376
0.360
0.336
0.324
0.312
0.312
0.328
0.328
0.328
0.340
0.356
0.356
0.336
0.340
0.356
0.368
0.372
0.364
0.348
0.336
0.324
0.300
0.304
0.304
0.280
0.280
0.284
0.276
0.292
0.320
0.344
0.356
0.356
0.360
0.336
0.328
0.328
0.344
0.336
0.332
0.324
0.300
0.284
0.276
0.264
0.276
0.296
0.308
0.320
0.328
0.340
0.368
0.388
0.380
0.380
0.376
0.376
0.364
0.352
0.328
0.312
0.296
0.288
0.276
0.260
0.276
0.300
0.296
0.320
0.348
0.364
0.404
0.400
0.416
0.420
0.400
0.392
0.376
0.352
0.348
0.344
0.340
0.348
0.328
0.324
0.324
0.336
0.340
0.364
0.396
0.404
0.416
0.412
0.424
0.424
0.404
0.396
0.408
0.400
0.392
0.392
0.388
0.380
0.376
0.356
0.360
0.368
0.364
0.368
0.388
0.412
0.440
0.452
0.456
0.464
0.448
0.452
0.440
0.432
0.420
0.412
0.408
0.388
0.380
0.380
0.384
0.404
0.428
0.444
0.476
0.504
0.520
0.512
0.512
0.508
0.524
0.520
0.516
0.512
0.500
0.492
0.480
0.476
0.472
0.472
0.472
0.488
0.492
0.504
0.516
0.548
0.552
0.544
0.548
0.572
0.592
0.580
0.576
0.568
0.568
0.564
0.548
0.536
0.536
0.556
0.568
0.576
0.564
0.556
0.576
0.596
0.620
0.616
0.616
0.616
0.620
0.616
0.628
0.612
0.600
0.596
0.588
0.576
0.568
0.552
0.540
0.548
0.568
0.600
0.620
0.624
0.632
0.648
0.652
0.648
0.644
0.644
0.648
0.624
0.600
0.588
0.572
0.580
0.580
0.548
0.540
0.548
0.544
0.560
0.572
0.572
0.592
0.592
0.592
0.580
0.576
0.556
0.552
0.520
0.488
0.476
0.448
0.428
0.432
0.444
0.440
0.436
0.428
0.424
0.432
0.460
0.476
0.476
0.456
0.456
0.452
0.432
0.424
0.400
0.380
0.368
0.360
0.352
0.328
0.300
0.284
0.308
0.308
0.300
0.312
0.336
0.360
0.368
0.368
0.376
0.360
0.328
0.328
0.308
0.296
0.280
0.268
0.272
0.268
0.252
0.244
0.248
0.260
0.276
0.280
0.300
0.316
0.328
0.332
0.320
0.296
0.292
0.276
0.268
0.236
0.212
0.204
0.212
0.224
0.216
0.224
0.228
0.236
0.260
0.264
0.280
0.292
0.300
0.288
0.284
0.276
0.272
0.268
0.268
0.264
0.244
0.240
0.236
0.220
0.196
0.184
0.192
0.196
0.212
0.240
0.272
0.292
0.300
0.284
0.284
0.288
0.280
0.268
0.276
0.260
0.248
0.244
0.240
0.220
0.200
0.200
0.212
0.208
0.228
0.240
0.248
0.252
0.256
0.260
0.272
0.268
0.260
0.256
0.248
0.228
0.212
0.204
0.188
0.192
0.196
0.200
0.224
0.216
0.228
0.232
0.248
0.256
0.256
0.276
0.284
0.284
0.272
0.256
0.240
0.228
0.216
0.212
0.196
0.200
0.220
0.220
0.220
0.208
0.236
0.240
0.252
0.260
0.268
0.268
0.280
0.296
0.284
0.260
0.224
0.196
0.184
0.160
0.144
0.160
0.156
0.168
0.176
0.192
0.208
0.228
0.244
0.256
0.268
0.268
0.268
0.248
0.244
0.244
0.224
0.204
0.176
0.172
0.176
0.164
0.156
0.164
0.168
0.184
0.184
0.184
0.200
0.200
0.200
0.208
0.208
0.192
0.192
0.192
0.180
0.164
0.156
0.132
0.132
0.140
0.144
0.132
0.140
0.164
0.192
0.192
0.216
0.236
0.220
0.204
0.192
0.192
0.176
0.172
0.152
0.144
0.136
0.120
0.112
0.100
0.104
0.100
0.120
0.140
0.160
0.180
0.188
0.184
0.196
0.208
0.204
0.172
0.144
0.136
0.128
0.108
0.088
0.080
0.072
0.084
0.088
0.084
0.080
0.100
0.104
0.108
0.140
0.156
0.172
0.176
0.196
0.208
0.196
0.168
0.144
0.120
0.100
0.116
0.136
0.140
0.156
0.156
0.160
0.176
0.196
0.200
0.216
0.228
0.228
0.224
0.236
0.244
0.244
0.232
0.208
0.212
0.200
0.176
0.168
0.196
0.200
0.176
0.188
0.196
0.208
0.224
0.268
0.288
0.288
0.288
0.276
0.280
0.268
0.264
0.240
0.220
0.180
0.160
0.152
0.152
0.140
0.140
0.128
0.128
0.156
0.164
0.172
0.180
0.184
0.184
0.188
0.180
0.168
0.152
0.120
0.104
0.088
0.084
0.064
0.068
0.064
0.052
0.040
0.032
0.056
0.084
0.104
0.096
0.076
0.040
0.028
0.028
0.036
0.044
0.020
0.004
-0.016
-0.032
-0.036
-0.024
-0.020
-0.028
-0.016
-0.004
0.004
0.020
0.032
0.040
0.044
0.052
0.056
0.040
0.024
0.012
0.008
-0.012
-0.024
-0.044
-0.056
-0.056
-0.060
-0.056
-0.052
-0.052
-0.028
-0.008
-0.004
0.004
0.004
0.008
0.012
0.008
0.012
0.000
-0.020
-0.052
-0.068
-0.084
-0.136
-0.164
-0.184
-0.184
-0.176
-0.184
-0.184
-0.164
-0.136
-0.116
-0.084
-0.044
-0.008
0.020
0.048
0.084
0.144
0.220
0.256
0.300
0.372
0.456
0.544
0.640
0.728
0.820
0.932
1.036
1.120
1.208
1.288
1.340
1.392
1.428
1.468
1.468
1.472
1.432
1.316
1.208
1.084
0.992
0.904
0.800
0.672
0.552
0.440
0.328
0.240
0.180
0.140
0.124
0.092
0.032
-0.004
-0.024
-0.032
-0.036
-0.044
-0.032
-0.036
-0.032
-0.024
-0.004
0.008
0.028
0.052
0.056
0.068
0.076
0.084
0.076
0.076
0.052
0.032
0.016
0.004
-0.016
-0.056
-0.080
-0.072
-0.068
-0.064
-0.048
-0.052
-0.048
-0.044
-0.036
-0.032
-0.048
-0.056
-0.040
-0.048
-0.056
-0.068
-0.088
-0.088
-0.084
-0.080
-0.084
-0.096
-0.092
-0.068
-0.060
-0.088
-0.064
-0.044
-0.048
-0.024
-0.020
-0.008
-0.004
-0.020
-0.056
-0.064
-0.080
-0.096
-0.104
-0.116
-0.104
-0.104
-0.112
-0.120
-0.108
-0.108
-0.100
-0.088
-0.064
-0.040
-0.020
-0.012
-0.020
-0.028
-0.028
-0.028
-0.040
-0.056
-0.068
-0.092
-0.100
-0.116
-0.124
-0.132
-0.128
-0.112
-0.096
-0.072
-0.068
-0.040
-0.028
-0.016
-0.024
-0.036
-0.032
-0.028
-0.044
-0.056
-0.064
-0.080
-0.092
-0.112
-0.112
-0.108
-0.088
-0.088
-0.060
-0.032
-0.020
-0.012
-0.024
-0.028
-0.012
-0.004
-0.008
-0.004
-0.004
-0.004
-0.036
-0.056
-0.076
-0.100
-0.104
-0.112
-0.096
-0.084
-0.056
-0.036
-0.020
0.000
0.012
0.016
0.016
0.024
0.024
0.000
-0.012
-0.012
-0.024
-0.040
-0.048
-0.048
-0.060
-0.052
-0.020
-0.012
0.008
0.016
0.004
0.008
0.040
0.060
0.052
0.060
0.028
0.016
0.024
0.016
-0.004
-0.020
-0.028
0.000
0.004
-0.004
0.012
-0.004
0.028
0.068
0.096
0.112
0.116
0.120
0.120
0.124
0.128
0.116
0.104
0.088
0.072
0.036
0.028
0.028
0.032
0.036
0.028
0.032
0.048
0.076
0.104
0.116
0.120
0.124
0.140
0.128
0.108
0.092
0.080
0.056
0.032
0.016
0.012
0.012
0.028
0.028
0.048
0.068
0.104
0.124
0.128
0.136
0.120
0.104
0.108
0.104
0.088
0.088
0.064
0.040
0.020
-0.008
-0.024
-0.024
-0.040
-0.084
-0.072
-0.048
-0.044
-0.032
-0.012
0.000
-0.012
-0.036
-0.048
-0.064
-0.080
-0.080
-0.096
-0.116
-0.144
-0.172
-0.176
-0.172
-0.168
-0.180
-0.192
-0.184
-0.176
-0.176
-0.168
-0.172
-0.164
-0.176
-0.180
-0.184
-0.184
-0.184
-0.208
-0.216
-0.232
-0.252
-0.268
-0.264
-0.272
-0.284
-0.280
-0.288
-0.272
-0.256
-0.248
-0.248
-0.244
-0.244
-0.252
-0.260
-0.268
-0.268
-0.272
-0.256
-0.272
-0.304
-0.312
-0.308
-0.316
-0.324
-0.332
-0.332
-0.320
-0.292
-0.272
-0.276
-0.268
-0.276
-0.248
-0.256
-0.292
-0.300
-0.304
-0.320
-0.340
-0.356
-0.368
-0.376
-0.388
-0.384
-0.360
-0.348
-0.324
-0.300
-0.284
-0.280
-0.280
-0.292
-0.288
-0.284
-0.292
-0.308
-0.344
-0.372
-0.360
-0.360
-0.364
-0.360
-0.364
-0.364
-0.376
-0.400
-0.376
-0.340
-0.320
-0.292
-0.296
-0.320
-0.320
-0.320
-0.316
-0.312
-0.328
-0.324
-0.344
-0.368
-0.372
-0.380
-0.380
-0.380
-0.380
-0.376
-0.368
-0.364
-0.348
-0.328
-0.308
-0.300
-0.300
-0.312
-0.324
-0.332
-0.340
-0.352
-0.368
-0.376
-0.380
-0.384
-0.376
-0.380
-0.384
-0.380
-0.376
-0.376
-0.348
-0.328
-0.320
-0.320
-0.320
-0.324
-0.328
-0.336
-0.352
-0.368
-0.384
-0.392
-0.396
-0.404
-0.404
-0.416
-0.408
-0.408
-0.400
-0.396
-0.368
-0.356
-0.364
-0.368
-0.356
-0.348
-0.352
-0.348
-0.344
-0.376
-0.408
-0.416
-0.416
-0.412
-0.424
-0.420
-0.408
-0.408
-0.400
-0.380
-0.356
-0.336
-0.340
-0.348
-0.356
-0.388
-0.404
-0.408
-0.424
-0.428
-0.448
-0.456
-0.456
-0.448
-0.432
-0.424
-0.424
-0.444
-0.428
-0.420
-0.420
-0.420
-0.404
-0.392
-0.400
-0.392
-0.404
-0.412
-0.420
-0.432
-0.460
-0.480
-0.484
-0.496
-0.504
-0.500
-0.492
-0.488
-0.468
-0.456
-0.440
-0.448
-0.452
-0.440
-0.424
-0.424
-0.424
-0.436
-0.468
-0.484
-0.500
-0.516
-0.500
-0.492
-0.496
-0.500
-0.492
-0.488
-0.480
-0.472
-0.460
-0.452
-0.456
-0.464
-0.460
-0.464
-0.468
-0.468
-0.468
-0.484
-0.508
-0.504
-0.492
-0.488
-0.492
-0.496
-0.492
-0.488
-0.488
-0.488
-0.472
-0.460
-0.444
-0.452
-0.444
-0.432
-0.428
-0.440
-0.440
-0.456
-0.472
-0.476
-0.480
-0.488
-0.496
-0.472
-0.452
-0.444
-0.420
-0.400
-0.400
-0.404
-0.404
-0.396
-0.380
-0.372
-0.372
-0.376
-0.404
-0.412
-0.412
-0.408
-0.412
-0.416
-0.424
-0.416
-0.424
-0.412
-0.380
-0.380
-0.364
-0.364
-0.376
-0.380
-0.376
-0.380
-0.388
-0.404
-0.432
-0.448
-0.452
-0.448
-0.464
-0.488
-0.508
-0.520
-0.524
-0.512
-0.512
-0.508
-0.496
-0.468
-0.460
-0.476
-0.480
-0.500
-0.512
-0.528
-0.540
-0.552
-0.580
-0.596
-0.620
-0.624
-0.632
-0.644
-0.632
-0.616
-0.604
-0.600
-0.576
-0.572
-0.556
-0.540
-0.556
-0.580
-0.596
-0.608
-0.628
-0.632
-0.640
-0.628
-0.640
-0.636
-0.644
-0.636
-0.648
-0.652
-0.640
-0.632
-0.624
-0.624
-0.608
-0.596
-0.588
-0.588
-0.596
-0.604
-0.620
-0.632
-0.656
-0.664
-0.680
-0.684
-0.672
-0.664
-0.660
-0.660
-0.656
-0.640
-0.628
-0.640
-0.640
-0.636
-0.628
-0.644
-0.656
-0.688
-0.736
-0.772
-0.804
-0.816
-0.836
-0.836
-0.816
-0.796
-0.808
-0.780
-0.740
-0.708
-0.648
-0.608
-0.564
-0.508
-0.428
-0.340
-0.240
-0.172
-0.120
-0.068
0.000
0.092
0.180
0.288
0.404
0.488
0.588
0.680
0.728
0.792
0.868
0.924
0.952
0.944
0.908
0.840
0.720
0.604
0.488
0.360
0.156
-0.032
-0.160
-0.256
-0.356
-0.428
-0.472
-0.500
-0.524
-0.556
-0.556
-0.560
-0.532
-0.516
-0.508
-0.520
-0.516
-0.520
-0.524
-0.532
-0.556
-0.568
-0.572
-0.588
-0.588
-0.588
-0.600
-0.600
-0.584
-0.584
-0.572
-0.572
-0.564
-0.584
-0.584
-0.584
-0.580
-0.588
-0.624
-0.628
-0.636
-0.648
-0.684
-0.696
-0.708
-0.700
-0.700
-0.688
-0.676
-0.664
-0.632
-0.636
-0.628
-0.608
-0.604
-0.636
-0.656
-0.664
-0.692
-0.692
-0.696
-0.696
-0.684
-0.680
-0.684
-0.672
-0.680
-0.676
-0.676
-0.664
-0.652
-0.644
-0.632
-0.624
-0.640
-0.648
-0.640
-0.652
-0.668
-0.672
-0.688
-0.700
-0.704
-0.712
-0.732
-0.720
-0.704
-0.688
-0.664
-0.648
-0.620
-0.612
-0.616
-0.624
-0.636
-0.656
-0.656
-0.664
-0.688
-0.708
-0.716
-0.720
-0.724
-0.736
-0.728
-0.676
-0.644
-0.656
-0.660
-0.648
-0.620
-0.592
-0.604
-0.616
-0.616
-0.616
-0.612
-0.624
-0.644
-0.668
-0.688
-0.676
-0.700
-0.708
-0.696
-0.680
-0.668
-0.652
-0.644
-0.620
-0.588
-0.584
-0.588
-0.596
-0.580
-0.568
-0.584
-0.592
-0.600
-0.608
-0.636
-0.640
-0.632
-0.624
-0.636
-0.632
-0.628
-0.608
-0.588
-0.580
-0.568
-0.576
-0.572
-0.572
-0.576
-0.580
-0.572
-0.572
-0.592
-0.604
-0.616
-0.608
-0.600
-0.600
-0.580
-0.556
-0.552
-0.536
-0.520
-0.492
-0.476
-0.472
-0.472
-0.464
-0.448
-0.460
-0.468
-0.488
-0.508
-0.508
-0.516
-0.516
-0.520
-0.524
-0.536
-0.540
-0.512
-0.488
-0.468
-0.464
-0.452
-0.452
-0.452
-0.440
-0.436
-0.448
-0.448
-0.452
-0.460
-0.476
-0.488
-0.476
-0.464
-0.476
-0.484
-0.472
-0.476
-0.460
-0.452
-0.440
-0.416
-0.404
-0.384
-0.384
-0.392
-0.392
-0.372
-0.384
-0.404
-0.416
-0.456
-0.480
-0.500
-0.500
-0.492
-0.484
-0.480
-0.476
-0.468
-0.444
-0.428
-0.432
-0.432
-0.460
-0.460
-0.472
-0.476
-0.500
-0.516
-0.548
-0.568
-0.572
-0.572
-0.576
-0.584
-0.592
-0.596
-0.616
-0.604
-0.588
-0.584
-0.584
-0.600
-0.588
-0.592
-0.612
-0.616
-0.644
-0.676
-0.688
-0.700
-0.720
-0.724
-0.728
-0.740
-0.736
-0.736
-0.728
-0.736
-0.732
-0.716
-0.708
-0.700
-0.684
-0.692
-0.712
-0.704
-0.712
-0.712
-0.736
-0.748
-0.772
-0.796
-0.796
-0.796
-0.784
-0.772
-0.772
-0.772
-0.756
-0.748
-0.744
-0.748
-0.748
-0.748
-0.756
-0.760
-0.768
-0.784
-0.804
-0.812
-0.812
-0.816
-0.804
-0.808
-0.804
-0.800
-0.792
-0.788
-0.780
-0.772
-0.784
-0.792
-0.792
-0.784
-0.780
-0.768
-0.776
-0.792
-0.804
-0.824
-0.812
-0.812
-0.832
-0.848
-0.844
-0.852
-0.828
-0.816
-0.800
-0.784
-0.768
-0.768
-0.772
-0.788
-0.800
-0.784
-0.780
-0.792
-0.808
-0.820
-0.824
-0.796
-0.792
-0.796
-0.824
-0.844
-0.816
-0.800
-0.764
-0.752
-0.756
-0.776
-0.776
-0.776
-0.788
-0.772
-0.776
-0.804
-0.836
-0.852
-0.852
-0.852
-0.856
-0.852
-0.840
-0.852
-0.832
-0.816
-0.792
-0.776
-0.768
-0.756
-0.752
-0.748
-0.768
-0.772
-0.784
-0.820
-0.836
-0.828
-0.816
-0.808
-0.812
-0.824
-0.824
-0.816
-0.784
-0.772
-0.780
-0.772
-0.764
-0.768
-0.764
-0.764
-0.772
-0.780
-0.796
-0.820
-0.836
-0.844
-0.840
-0.832
-0.828
-0.820
-0.820
-0.816
-0.800
-0.800
-0.792
-0.780
-0.772
-0.764
-0.756
-0.756
-0.784
-0.792
-0.808
-0.836
-0.856
-0.832
-0.832
-0.856
-0.872
-0.864
-0.872
-0.864
-0.848
-0.832
-0.804
-0.780
-0.768
-0.772
-0.764
-0.764
-0.780
-0.792
-0.792
-0.816
-0.832
-0.828
-0.832
-0.844
-0.836
-0.860
-0.872
-0.864
-0.844
-0.824
-0.812
-0.792
-0.800
-0.796
-0.796
-0.800
-0.812
-0.820
-0.848
-0.844
-0.860
-0.880
-0.884
-0.876
-0.876
-0.876
-0.876
-0.868
-0.852
-0.848
-0.824
-0.804
-0.808
-0.828
-0.812
-0.800
-0.812
-0.804
-0.820
-0.848
-0.880
-0.896
-0.912
-0.904
-0.904
-0.896
-0.884
-0.880
-0.876
-0.872
-0.848
-0.840
-0.832
-0.832
-0.824
-0.816
-0.828
-0.844
-0.860
-0.872
-0.900
-0.912
-0.908
-0.892
-0.888
-0.876
-0.872
-0.868
-0.860
-0.856
-0.832
-0.832
-0.812
-0.804
-0.800
-0.812
-0.828
-0.840
-0.872
-0.880
-0.876
-0.888
-0.900
-0.892
-0.892
-0.888
-0.868
-0.840
-0.800
-0.780
-0.756
-0.740
-0.740
-0.736
-0.736
-0.732
-0.732
-0.736
-0.764
-0.776
-0.796
-0.808
-0.824
-0.812
-0.796
-0.788
-0.772
-0.760
-0.740
-0.720
-0.700
-0.688
-0.664
-0.688
-0.724
-0.716
-0.700
-0.704
-0.720
-0.732
-0.748
-0.760
-0.780
-0.780
-0.788
-0.808
-0.788
-0.780
-0.784
-0.776
-0.760
-0.752
-0.760
-0.760
-0.760
-0.760
-0.776
-0.784
-0.800
-0.844
-0.884
-0.896
-0.896
-0.888
-0.880
-0.872
-0.872
-0.868
-0.852
-0.848
-0.836
-0.828
-0.844
-0.856
-0.848
-0.852
-0.864
-0.864
-0.880
-0.904
-0.928
-0.936
-0.952
-0.956
-0.956
-0.944
-0.928
-0.920
-0.912
-0.900
-0.892
-0.904
-0.892
-0.880
-0.872
-0.872
-0.876
-0.892
-0.904
-0.916
-0.936
-0.944
-0.936
-0.940
-0.948
-0.944
-0.928
-0.904
-0.884
-0.880
-0.868
-0.880
-0.888
-0.880
-0.868
-0.888
-0.896
-0.908
-0.924
-0.956
-0.968
-0.968
-0.984
-1.000
-1.032
-1.044
-1.060
-1.072
-1.060
-1.048
-1.020
-1.016
-1.016
-1.004
-0.992
-0.972
-0.956
-0.940
-0.928
-0.912
-0.880
-0.824
-0.756
-0.680
-0.612
-0.528
-0.456
-0.364
-0.248
-0.120
0.020
0.148
0.268
0.352
0.416
0.472
0.516
0.564
0.616
0.660
0.660
0.656
0.624
0.556
0.456
0.364
0.268
0.124
-0.040
-0.180
-0.288
-0.396
-0.472
-0.560
-0.632
-0.692
-0.752
-0.788
-0.804
-0.804
-0.812
-0.804
-0.804
-0.792
-0.776
-0.764
-0.768
-0.768
-0.772
-0.748
-0.740
-0.748
-0.748
-0.752
-0.768
-0.784
-0.796
-0.816
-0.832
-0.844
-0.860
-0.868
-0.888
-0.908
-0.920
-0.904
-0.884
-0.876
-0.856
-0.836
-0.832
-0.828
-0.816
-0.816
-0.812
-0.816
-0.816
-0.848
-0.860
-0.876
-0.904
-0.908
-0.908
-0.912
-0.912
-0.896
-0.884
-0.880
-0.884
-0.880
-0.872
-0.872
-0.852
-0.848
-0.844
-0.840
-0.844
-0.852
-0.856
-0.872
-0.892
-0.892
-0.888
-0.888
-0.880
-0.880
-0.888
-0.872
-0.844
-0.844
-0.832
-0.840
-0.824
-0.820
-0.824
-0.832
-0.824
-0.836
-0.844
-0.856
-0.880
-0.880
-0.888
-0.896
-0.888
-0.876
-0.876
-0.856
-0.860
-0.852
-0.828
-0.816
-0.816
-0.816
-0.816
-0.812
-0.816
-0.804
-0.824
-0.844
-0.860
-0.868
-0.884
-0.880
-0.860
-0.844
-0.840
-0.832
-0.800
-0.792
-0.776
-0.768
-0.772
-0.768
-0.756
-0.772
-0.772
-0.784
-0.812
-0.816
-0.832
-0.832
-0.816
-0.808
-0.796
-0.784
-0.792
-0.800
-0.784
-0.756
-0.736
-0.744
-0.740
-0.736
-0.740
-0.724
-0.716
-0.748
-0.760
-0.764
-0.784
-0.788
-0.784
-0.776
-0.780
-0.756
-0.752
-0.740
-0.704
-0.684
-0.672
-0.668
-0.660
-0.664
-0.664
-0.660
-0.652
-0.656
-0.664
-0.664
-0.664
-0.668
-0.680
-0.700
-0.704
-0.680
-0.676
-0.648
-0.636
-0.616
-0.592
-0.592
-0.592
-0.588
-0.584
-0.592
-0.584
-0.596
-0.608
-0.624
-0.648
-0.644
-0.656
-0.648
-0.644
-0.624
-0.600
-0.592
-0.572
-0.544
-0.516
-0.500
-0.496
-0.496
-0.500
-0.512
-0.520
-0.524
-0.540
-0.552
-0.556
-0.572
-0.580
-0.588
-0.588
-0.576
-0.576
-0.564
-0.540
-0.532
-0.516
-0.516
-0.524
-0.512
-0.508
-0.524
-0.524
-0.560
-0.592
-0.608
-0.612
-0.620
-0.636
-0.632
-0.636
-0.632
-0.640
-0.644
-0.640
-0.640
-0.628
-0.620
-0.596
-0.596
-0.624
-0.648
-0.676
-0.708
-0.712
-0.732
-0.760
-0.772
-0.796
-0.804
-0.796
-0.780
-0.780
-0.772
-0.748
-0.752
-0.736
-0.740
-0.756
-0.772
-0.768
-0.784
-0.804
-0.824
-0.840
-0.844
-0.844
-0.848
-0.844
-0.852
-0.856
-0.848
-0.856
-0.848
-0.840
-0.832
-0.824
-0.828
-0.824
-0.832
-0.844
-0.848
-0.860
-0.884
-0.892
-0.904
-0.916
-0.924
-0.924
-0.932
-0.936
-0.904
-0.888
-0.872
-0.868
-0.868
-0.856
-0.860
-0.856
-0.856
-0.856
-0.856
-0.864
-0.880
-0.888
-0.908
-0.920
-0.912
-0.904
-0.912
-0.916
-0.920
-0.920
-0.900
-0.884
-0.872
-0.836
-0.828
-0.832
-0.828
-0.828
-0.852
-0.856
-0.872
-0.880
-0.904
-0.932
-0.940
-0.940
-0.928
-0.924
-0.908
-0.896
-0.884
-0.876
-0.860
-0.848
-0.848
-0.852
-0.828
-0.824
-0.844
-0.856
-0.888
-0.904
-0.908
-0.908
-0.920
-0.924
-0.932
-0.928
-0.916
-0.932
-0.904
-0.884
-0.860
-0.836
-0.824
-0.816
-0.812
-0.804
-0.812
-0.832
-0.856
-0.864
-0.876
-0.892
-0.900
-0.904
-0.908
-0.912
-0.920
-0.920
-0.896
-0.896
-0.856
-0.820
-0.820
-0.824
-0.824
-0.820
-0.840
-0.848
-0.860
-0.864
-0.892
-0.912
-0.908
-0.920
-0.932
-0.932
-0.904
-0.904
-0.888
-0.864
-0.844
-0.824
-0.816
-0.824
-0.812
-0.796
-0.796
-0.832
-0.864
-0.868
-0.900
-0.928
-0.924
-0.900
-0.904
-0.912
-0.912
-0.900
-0.892
-0.876
-0.836
-0.828
-0.844
-0.828
-0.812
-0.824
-0.840
-0.856
-0.872
-0.888
-0.900
-0.916
-0.924
-0.928
-0.924
-0.920
-0.916
-0.896
-0.884
-0.876
-0.856
-0.844
-0.832
-0.840
-0.836
-0.820
-0.832
-0.844
-0.852
-0.856
-0.888
-0.908
-0.924
-0.928
-0.928
-0.932
-0.928
-0.912
-0.896
-0.888
-0.868
-0.852
-0.848
-0.844
-0.852
-0.848
-0.856
-0.852
-0.864
-0.880
-0.896
-0.908
-0.920
-0.920
-0.924
-0.928
-0.920
-0.932
-0.920
-0.904
-0.880
-0.872
-0.864
-0.844
-0.840
-0.856
-0.876
-0.896
-0.916
-0.924
-0.912
-0.912
-0.924
-0.932
-0.932
-0.944
-0.924
-0.916
-0.896
-0.868
-0.856
-0.852
-0.848
-0.868
-0.868
-0.856
-0.848
-0.852
-0.876
-0.888
-0.900
-0.908
-0.924
-0.912
-0.912
-0.916
-0.920
-0.908
-0.880
-0.860
-0.836
-0.816
-0.816
-0.796
-0.788
-0.792
-0.776
-0.760
-0.772
-0.792
-0.812
-0.808
-0.820
-0.820
-0.816
-0.816
-0.804
-0.800
-0.784
-0.752
-0.744
-0.728
-0.712
-0.720
-0.728
-0.732
-0.736
-0.740
-0.744
-0.736
-0.736
-0.752
-0.784
-0.788
-0.784
-0.776
-0.780
-0.776
-0.756
-0.744
-0.732
-0.728
-0.732
-0.736
-0.736
-0.748
-0.744
-0.764
-0.788
-0.824
-0.844
-0.860
-0.880
-0.876
-0.872
-0.876
-0.880
-0.876
-0.860
-0.856
-0.832
-0.824
-0.824
-0.836
-0.836
-0.852
-0.852
-0.860
-0.872
-0.888
-0.908
-0.912
-0.936
-0.932
-0.936
-0.936
-0.932
-0.912
-0.900
-0.904
-0.876
-0.864
-0.856
-0.856
-0.856
-0.864
-0.872
-0.860
-0.880
-0.892
-0.896
-0.912
-0.944
-0.956
-0.972
-0.968
-0.948
-0.932
-0.904
-0.884
-0.868
-0.868
-0.876
-0.876
-0.868
-0.864
-0.872
-0.884
-0.896
-0.924
-0.952
-0.952
-0.948
-0.956
-0.968
-0.980
-0.988
-0.980
-0.980
-0.976
-0.976
-0.988
-1.004
-1.008
-1.016
-1.032
-1.024
-1.004
-1.012
-0.992
-0.992
-1.000
-0.964
-0.928
-0.892
-0.832
-0.756
-0.680
-0.596
-0.492
-0.384
-0.276
-0.172
-0.052
0.072
0.152
0.248
0.304
0.380
0.440
0.484
0.524
0.596
0.648
0.660
0.652
0.632
0.588
0.528
0.444
0.364
0.244
0.076
-0.084
-0.216
-0.336
-0.440
-0.536
-0.612
-0.680
-0.740
-0.776
-0.784
-0.792
-0.784
-0.760
-0.752
-0.728
-0.700
-0.684
-0.668
-0.660
-0.660
-0.660
-0.664
-0.680
-0.688
-0.704
-0.752
-0.776
-0.796
-0.812
-0.828
-0.848
-0.848
-0.836
-0.832
-0.840
-0.812
-0.796
-0.788
-0.784
-0.776
-0.796
-0.796
-0.812
-0.812
-0.832
-0.836
-0.828
-0.824
-0.820
-0.828
-0.836
-0.832
-0.820
-0.828
-0.836
-0.816
-0.808
-0.796
-0.800
-0.800
-0.792
-0.784
-0.800
-0.816
-0.824
-0.824
-0.824
-0.844
-0.872
-0.868
-0.860
-0.852
-0.856
-0.856
-0.832
-0.820
-0.808
-0.792
-0.808
-0.800
-0.796
-0.800
-0.804
-0.784
-0.776
-0.792
-0.804
-0.816
-0.820
-0.820
-0.820
-0.828
-0.828
-0.820
-0.820
-0.796
-0.772
-0.740
-0.728
-0.708
-0.716
-0.720
-0.724
-0.756
-0.792
-0.796
-0.824
-0.852
-0.816
-0.808
-0.796
-0.784
-0.760
-0.748
-0.744
-0.744
-0.732
-0.700
-0.688
-0.692
-0.708
-0.708
-0.712
-0.720
-0.716
-0.720
-0.712
-0.736
-0.752
-0.768
-0.752
-0.740
-0.728
-0.736
-0.728
-0.704
-0.676
-0.668
-0.660
-0.652
-0.656
-0.672
-0.676
-0.668
-0.656
-0.672
-0.688
-0.700
-0.700
-0.704
-0.716
-0.712
-0.696
-0.700
-0.676
-0.660
-0.628
-0.604
-0.608
-0.592
-0.580
-0.576
-0.580
-0.588
-0.596
-0.588
-0.592
-0.612
-0.608
-0.612
-0.612
-0.604
-0.608
-0.604
-0.584
-0.556
-0.524
-0.520
-0.520
-0.520
-0.520
-0.512
-0.512
-0.516
-0.528
-0.540
-0.544
-0.560
-0.564
-0.552
-0.528
-0.516
-0.512
-0.500
-0.472
-0.456
-0.448
-0.432
-0.444
-0.440
-0.432
-0.428
-0.432
-0.420
-0.416
-0.428
-0.456
-0.472
-0.464
-0.472
-0.488
-0.492
-0.476
-0.480
-0.452
-0.448
-0.444
-0.436
-0.428
-0.412
-0.404
-0.400
-0.420
-0.424
-0.416
-0.448
-0.452
-0.464
-0.480
-0.488
-0.500
-0.496
-0.500
-0.504
-0.496
-0.488
-0.488
-0.480
-0.476
-0.484
-0.492
-0.500
-0.524
-0.540
-0.552
-0.572
-0.592
-0.620
-0.620
-0.612
-0.620
-0.628
-0.636
-0.648
-0.648
-0.632
-0.608
-0.600
-0.584
-0.600
-0.608
-0.628
-0.644
-0.660
-0.676
-0.680
-0.692
-0.720
-0.724
-0.716
-0.716
-0.760
-0.768
-0.748
-0.728
-0.720
-0.712
-0.692
-0.688
-0.676
-0.676
-0.680
-0.708
-0.728
-0.744
-0.764
-0.784
-0.804
-0.820
-0.816
-0.816
-0.808
-0.788
-0.796
-0.776
-0.760
-0.760
-0.736
-0.716
-0.708
-0.720
-0.728
-0.740
-0.744
-0.756
-0.780
-0.788
-0.804
-0.816
-0.824
-0.836
-0.840
-0.820
-0.808
-0.796
-0.776
-0.740
-0.732
-0.740
-0.720
-0.720
-0.732
-0.732
-0.728
-0.740
-0.764
-0.784
-0.792
-0.800
-0.784
-0.784
-0.776
-0.772
-0.768
-0.744
-0.748
-0.744
-0.728
-0.712
-0.712
-0.728
-0.724
-0.724
-0.724
-0.736
-0.752
-0.780
-0.784
-0.784
-0.776
-0.780
-0.780
-0.780
-0.780
-0.768
-0.748
-0.724
-0.708
-0.708
-0.720
-0.724
-0.732
-0.752
-0.720
-0.712
-0.716
-0.732
-0.740
-0.752
-0.764
-0.776
-0.784
-0.776
-0.768
-0.740
-0.720
-0.700
-0.696
-0.704
-0.700
-0.696
-0.688
-0.696
-0.696
-0.704
-0.720
-0.732
-0.748
-0.748
-0.752
-0.760
-0.756
-0.740
-0.748
-0.744
-0.744
-0.724
-0.700
-0.696
-0.696
-0.684
-0.688
-0.696
-0.700
-0.716
-0.728
-0.740
-0.744
-0.756
-0.768
-0.760
-0.768
-0.768
-0.768
-0.756
-0.736
-0.708
-0.696
-0.688
-0.680
-0.684
-0.684
-0.684
-0.684
-0.696
-0.692
-0.712
-0.732
-0.744
-0.748
-0.740
-0.748
-0.740
-0.748
-0.728
-0.716
-0.696
-0.696
-0.676
-0.668
-0.668
-0.684
-0.684
-0.680
-0.696
-0.716
-0.740
-0.764
-0.760
-0.748
-0.740
-0.720
-0.728
-0.740
-0.740
-0.740
-0.708
-0.692
-0.680
-0.660
-0.648
-0.644
-0.668
-0.672
-0.688
-0.680
-0.704
-0.716
-0.712
-0.696
-0.684
-0.684
-0.664
-0.668
-0.660
-0.636
-0.616
-0.600
-0.588
-0.600
-0.608
-0.604
-0.600
-0.588
-0.584
-0.596
-0.604
-0.616
-0.628
-0.632
-0.628
-0.628
-0.596
-0.592
-0.600
-0.568
-0.544
-0.536
-0.524
-0.536
-0.544
-0.552
-0.560
-0.584
-0.592
-0.580
-0.616
-0.628
-0.628
-0.640
-0.640
-0.640
-0.640
-0.628
-0.616
-0.608
-0.604
-0.600
-0.604
-0.604
-0.612
-0.616
-0.620
-0.628
-0.648
-0.672
-0.680
-0.688
-0.692
-0.692
-0.704
-0.712
-0.716
-0.708
-0.688
-0.688
-0.672
-0.656
-0.656
-0.664
-0.668
-0.680
-0.700
-0.716
-0.720
-0.736
-0.768
-0.784
-0.788
-0.776
-0.768
-0.752
-0.748
-0.744
-0.744
-0.708
-0.684
-0.676
-0.676
-0.680
-0.692
-0.692
-0.688
-0.692
-0.724
-0.732
-0.732
-0.732
-0.736
-0.752
-0.740
-0.736
-0.748
-0.732
-0.716
-0.700
-0.680
-0.668
-0.668
-0.688
-0.692
-0.680
-0.672
-0.696
-0.716
-0.736
-0.756
-0.792
-0.832
-0.844
-0.852
-0.844
-0.856
-0.868
-0.864
-0.852
-0.820
-0.796
-0.756
-0.708
-0.676
-0.660
-0.648
-0.632
-0.584
-0.528
-0.480
-0.420
-0.356
-0.268
-0.172
-0.080
0.024
0.132
0.244
0.356
0.468
0.560
0.648
0.704
0.760
0.816
0.832
0.840
0.824
0.800
0.740
0.656
0.568
0.480
0.384
